Timestamp,CH_1,CH_2,CH_3,CH_4,CH_5,CH_6,CH_7,CH_8
1763470576.567909,0,-1,-1,3,3,-1,-1,-1
1763470576.5827415,-1,-2,-2,1,-5,-1,1,-2
1763470576.605236,-1,-2,-5,-1,-2,1,1,-1
1763470576.6352568,-2,0,1,1,-3,-5,-2,-1
1763470576.6427734,-1,-1,-1,-1,-5,-3,-3,-2
1763470576.6651971,-2,-2,-2,2,2,-2,-1,-1
1763470576.687697,1,0,2,12,17,3,0,-1
1763470576.7021086,0,-1,-1,-1,-5,-2,0,-1
1763470576.7088583,-2,-1,0,1,1,0,1,-1
1763470576.7252674,-1,-3,-2,-3,-4,0,-1,1
1763470576.7478073,0,-2,-2,0,-4,-1,-1,0
1763470576.7621465,-1,-2,-3,-6,-9,-2,0,-1
1763470576.7691898,-2,0,-1,-2,-5,0,-1,-2
1763470576.7852864,-1,0,1,-5,-2,-2,-1,-1
1763470576.8078144,-2,0,-3,-4,-5,-3,-3,-2
1763470576.8220956,0,-2,1,-3,0,1,1,0
1763470576.8289535,-2,-2,0,2,7,-4,-3,-2
1763470576.8451645,-1,0,-1,0,-5,-1,-1,-2
1763470576.8682199,-1,-1,-2,0,-2,0,-1,-1
1763470576.882129,0,1,2,-2,0,0,0,-1
1763470576.8892248,-1,0,-5,-8,-1,-2,-1,-1
1763470576.905255,-1,-2,0,-3,-1,0,-1,-2
1763470576.927698,-1,0,-2,0,0,0,-2,0
1763470576.9420176,-3,-1,-1,2,2,0,0,0
1763470576.9487948,-2,-2,-1,-1,-1,-1,-1,-1
1763470576.9651833,0,-1,-2,-5,-3,-1,-2,-1
1763470576.9877462,0,-1,-1,1,-1,-1,0,-1
1763470577.0020301,-2,-2,2,8,3,-1,-1,-2
1763470577.008861,-2,-1,-2,0,-2,-1,0,0
1763470577.0241973,-1,-2,-2,-3,-4,1,-3,-1
1763470577.0328717,0,-2,-1,-3,-6,0,-1,0
1763470577.0477626,0,-1,-1,-3,-1,-2,-1,-2
1763470577.062006,-1,0,-1,1,2,-2,-1,-3
1763470577.0688531,-3,-1,-2,-2,-2,0,2,-2
1763470577.085467,-1,-1,0,-6,-3,-1,-2,2
1763470577.1076994,-1,0,-1,-2,0,-2,0,0
1763470577.1213322,-2,0,0,3,-1,-2,-1,0
1763470577.1302996,-1,-1,0,2,3,0,0,-1
1763470577.1452842,-1,-1,1,2,0,1,-2,-1
1763470577.167792,-1,0,-1,0,2,1,2,0
1763470577.181324,-1,-2,-3,-7,-2,-2,-1,0
1763470577.190455,-1,-2,-2,0,-5,-1,-1,-3
1763470577.205227,0,-1,0,1,-3,-1,1,-1
1763470577.2276733,0,-1,-1,3,-5,1,-1,-2
1763470577.2413373,-1,-1,1,-1,3,-2,-1,-1
1763470577.250347,-2,-1,-2,0,2,-1,-2,0
1763470577.2651408,-1,-3,-2,-1,5,0,-1,1
1763470577.2878556,-1,-3,-2,8,10,0,-1,-1
1763470577.30156,0,-2,-2,-6,-7,-1,-1,-2
1763470577.3105116,-2,-1,0,1,-2,-3,-1,-1
1763470577.3252192,-2,0,0,-3,-1,-2,0,2
1763470577.347744,-2,-1,0,-2,-5,-2,-1,-1
1763470577.361244,0,-1,-1,10,-3,1,-1,-1
1763470577.3702602,-1,0,-2,-1,1,0,-1,-1
1763470577.3853087,-1,-2,-5,-7,-2,-1,-2,-1
1763470577.4077108,0,0,1,-3,-3,0,-1,-1
1763470577.4213314,-3,-2,-2,-4,0,-1,0,-3
1763470577.430285,0,0,0,-6,-5,-3,-2,-2
1763470577.4451497,-1,-1,-1,-3,-3,-2,-2,0
1763470577.4681299,1,-3,-4,0,-6,1,-1,-1
1763470577.481301,0,0,-2,-3,3,-1,0,-1
1763470577.4902346,-1,-2,0,6,4,0,0,-2
1763470577.5052502,1,1,0,-1,3,-2,-2,0
1763470577.5276153,-1,-1,1,2,-2,0,-1,-2
1763470577.5413363,-1,-1,-2,-2,-1,-1,-1,-1
1763470577.5578322,0,0,2,13,1,-1,-2,0
1763470577.5652602,-1,-1,0,-2,-2,0,-1,0
1763470577.5876334,-1,0,2,-2,0,-1,-2,-2
1763470577.6103506,-1,-1,-4,-7,-6,-2,-3,-3
1763470577.6251643,-1,-2,-2,-7,-7,-1,0,0
1763470577.6476846,-1,0,-1,1,3,0,1,-1
1763470577.6703804,-1,-1,-2,-1,-3,-2,-1,-1
1763470577.685408,-2,-2,-1,1,1,-2,0,0
1763470577.7078001,-2,-2,-2,0,0,1,0,-2
1763470577.7301683,0,-2,1,3,-5,0,-1,-1
1763470577.7447402,0,-2,0,0,1,0,-1,-2
1763470577.7514362,-1,-3,-3,-4,-3,0,0,-1
1763470577.7678545,-2,-1,0,-1,-4,-1,-1,-1
1763470577.7901096,-1,0,-1,-1,0,-1,-2,0
1763470577.804576,0,1,1,2,-3,0,1,0
1763470577.8113048,0,1,1,-2,2,-1,1,0
1763470577.8268042,1,-3,-2,-4,-2,-1,-1,-1
1763470577.8352988,-2,-1,-3,-8,-9,-1,0,-1
1763470577.8502767,0,0,-1,0,-1,-3,0,0
1763470577.8645015,-2,-3,-4,0,0,-1,0,-2
1763470577.8788042,-2,-1,-2,2,2,-2,-1,-1
1763470577.8876293,-1,1,-1,1,-1,1,-2,0
1763470577.9104714,0,0,-2,-4,-2,-5,-2,-1
1763470577.9245589,-1,0,-2,-1,1,-1,-2,0
1763470577.9313536,0,0,-2,-2,-3,1,0,0
1763470577.9468145,-1,-2,1,0,2,-1,-2,-1
1763470577.955523,0,-2,-1,-2,1,1,0,-1
1763470577.9702084,-2,0,-3,-10,-6,0,-2,-2
1763470577.9845855,-1,-2,-4,-2,1,1,0,0
1763470577.9914377,-2,-4,-2,1,-3,-2,0,-2
1763470578.0077324,-1,1,1,-6,-7,-1,-2,-1
1763470578.0302503,-1,-3,-2,-1,-3,0,0,-1
1763470578.0438912,0,0,0,2,0,-1,-2,-3
1763470578.05304,0,-2,0,12,1,2,0,0
1763470578.06824,-2,1,1,5,1,-2,1,0
1763470578.0902395,-2,-1,-1,3,4,0,-1,-2
1763470578.1126444,1,-1,0,1,-1,-1,0,-1
1763470578.1276371,-1,-2,-2,-4,-2,-4,0,0
1763470578.1578827,-2,-2,-2,-2,-4,1,1,0
1763470578.1640851,-1,0,1,4,-2,0,0,-1
1763470578.1727934,-2,0,0,-2,0,1,-2,-1
1763470578.1877325,-1,-1,-1,-2,2,-1,-2,0
1763470578.2101927,-1,-1,0,-2,2,0,0,0
1763470578.2238963,-1,-3,-4,-3,0,0,-2,-2
1763470578.2328384,-2,-1,-2,-2,-1,-2,-2,0
1763470578.247663,2,1,2,0,0,0,-2,-1
1763470578.2702866,-1,0,1,-10,-4,-2,-2,-1
1763470578.284089,-2,-3,0,-9,-4,-1,0,0
1763470578.2930036,-2,0,-1,-3,1,-1,-2,-2
1763470578.3078916,-1,0,-2,0,1,-2,-1,-2
1763470578.3303852,0,-2,-1,1,3,-1,-2,-1
1763470578.3443701,-1,-2,-3,-5,-5,-1,0,-1
1763470578.3531997,-1,-1,0,-2,1,-2,0,-1
1763470578.3678665,-3,-1,-2,11,3,1,1,0
1763470578.3902578,-1,-1,-3,-1,1,-1,-1,0
1763470578.4038866,-1,-2,-1,3,1,-2,0,-2
1763470578.412854,-2,1,-2,-4,3,1,0,-1
1763470578.4271889,1,0,2,-2,-5,-1,1,2
1763470578.4339778,0,0,-1,-1,-2,-1,-2,0
1763470578.4502802,-1,2,2,-8,0,-2,-2,-1
1763470578.4637866,-1,-1,0,2,1,1,-2,-1
1763470578.480321,-3,-3,-2,0,-5,2,0,-2
1763470578.4876952,0,-2,-3,-4,-4,0,0,-1
1763470578.5104275,-1,-2,-1,-1,-5,-2,-2,0
1763470578.5239377,-2,-3,0,0,2,-3,-1,-2
1763470578.5329847,-2,-3,0,-2,-1,-2,-1,-1
1763470578.548652,0,0,-4,3,0,-1,-1,-2
1763470578.5777743,0,1,1,-3,-2,0,-1,-1
1763470578.5929034,-1,-1,-2,4,1,-1,0,-1
1763470578.6079948,1,-1,0,-1,0,-1,-1,1
1763470578.6302307,-2,-1,0,0,-2,-1,-1,-1
1763470578.6527328,-2,-2,1,0,2,2,0,0
1763470578.6682189,-1,-1,0,2,0,-4,-2,0
1763470578.6903014,-2,-1,-1,-5,-4,-3,-1,-4
1763470578.7127314,1,-2,0,2,-1,-3,-2,-1
1763470578.7270176,1,-1,-2,-3,-2,0,-2,0
1763470578.733795,-2,1,-2,4,0,-1,0,0
1763470578.7502885,-2,-2,-2,1,1,1,0,0
1763470578.7726781,0,-2,-1,-1,-3,0,-1,-2
1763470578.78701,0,-1,-1,-3,0,-1,-1,-1
1763470578.7938304,1,-1,1,5,5,-5,-1,-2
1763470578.8101208,-2,-2,1,7,0,3,0,0
1763470578.8327382,-1,0,-2,-5,-4,-3,-2,-1
1763470578.855463,-2,-1,-4,-1,1,-2,-1,-2
1763470578.8701596,-1,-2,-2,-1,3,2,0,0
1763470578.8926985,-2,0,-2,-4,-2,-3,0,-1
1763470578.906982,-1,-2,-2,0,0,-3,-3,-1
1763470578.9137828,-1,-1,0,-2,-4,-1,-2,0
1763470578.9302332,-1,-1,1,0,-4,-4,-2,0
1763470578.9527702,0,-1,-2,-8,0,0,1,-2
1763470578.9671452,-2,-2,-3,-1,-1,0,0,-1
1763470578.9739473,-1,-3,-1,-2,1,-2,-4,-1
1763470578.990477,-1,-1,0,-5,-4,-1,0,-2
1763470579.0127647,0,-1,-1,0,-3,-2,0,0
1763470579.0266535,2,-1,0,0,-7,2,-1,-1
1763470579.035522,-1,-1,0,-2,-1,0,-1,-1
1763470579.050255,-3,-2,-1,15,3,0,-1,-1
1763470579.0727007,-1,1,0,-2,0,-4,-2,-1
1763470579.0863643,-1,-1,0,2,10,0,-2,-1
1763470579.0954468,0,-1,1,2,4,0,-1,-2
1763470579.1111507,-1,-1,-1,-5,0,-2,0,-1
1763470579.132846,0,-2,-1,-6,-2,-1,-1,0
1763470579.1465425,0,-1,-1,0,1,-1,-1,0
1763470579.1554453,-2,-2,-2,-2,1,-2,-1,0
1763470579.170169,-1,0,-1,0,0,0,-1,-1
1763470579.1927874,-1,-1,-1,-3,-3,-2,-1,-1
1763470579.2064688,-1,-3,-1,0,0,-1,-1,-1
1763470579.222796,0,-1,-4,-3,-3,0,-2,-1
1763470579.2302446,-1,1,-1,-2,1,2,-1,-3
1763470579.2527285,-1,0,0,-4,-3,-2,-1,-2
1763470579.2663796,-1,-3,1,-1,-3,0,-1,-2
1763470579.2754643,-1,-1,-2,-3,1,0,0,-1
1763470579.2903478,-1,0,-2,-3,-6,0,-1,0
1763470579.3126702,-1,-2,-1,4,-4,1,-1,-1
1763470579.326581,-1,0,-1,0,-2,-2,-2,-2
1763470579.3353374,0,-1,2,-2,-4,-2,-2,-2
1763470579.350383,0,0,-2,-3,-4,-3,-1,0
1763470579.3728414,-1,-1,-3,3,8,0,1,1
1763470579.386361,-1,-2,1,0,0,-3,-1,-1
1763470579.4028754,-2,-1,-1,-5,-4,-2,-1,0
1763470579.4101958,0,-3,-2,-8,-2,-1,-2,0
1763470579.4324772,-1,1,-1,4,4,0,-1,-1
1763470579.4403117,0,0,-1,0,-1,-1,0,0
1763470579.4463532,-3,0,0,-4,-3,-1,-1,0
1763470579.4553213,-2,-1,-2,-2,1,-2,-2,-1
1763470579.4702811,0,-1,-1,-1,-5,-1,-1,-3
1763470579.5003443,-1,-2,-4,-2,-2,-1,0,-1
1763470579.515231,0,-1,-3,0,2,2,-2,1
1763470579.530314,-1,-1,1,1,1,-3,-1,-1
1763470579.5540106,-1,-1,-3,-4,-3,-2,-2,-1
1763470579.5753355,-1,0,-1,9,12,-1,-2,-1
1763470579.5903373,-1,-1,-1,-6,-4,-3,-2,0
1763470579.6128812,-2,-2,1,-2,0,-2,-1,-1
1763470579.6351335,-5,-18,-26,-9,-10,-3,-4,-5
1763470579.64952,2,14,30,10,12,-1,2,0
1763470579.6564329,8,-17,-11,-12,-21,18,1,-1
1763470579.6726894,-4,13,-10,4,25,4,-1,-1
1763470579.6951349,-2,-7,5,5,23,9,1,-1
1763470579.7096286,1,6,-6,-3,-28,-18,4,2
1763470579.7163484,-1,0,-2,1,-8,-15,-4,4
1763470579.7332177,-9,-8,3,0,-6,4,22,12
1763470579.7558494,6,3,-3,-7,-6,1,-2,-6
1763470579.7687783,-4,-5,3,2,24,7,-11,-4
1763470579.7777803,0,1,-7,-7,5,-6,0,-3
1763470579.7929158,7,-2,0,-9,-23,22,3,2
1763470579.8227973,2,-5,-3,-2,-14,-5,-7,-1
1763470579.8287752,0,6,10,-1,-14,-11,-3,-3
1763470579.8377657,-2,-4,0,-4,18,-15,-3,-1
1763470579.8526561,1,-2,-5,-4,9,11,-4,-3
1763470579.8753293,-2,-2,3,-1,-12,2,1,-2
1763470579.888932,-6,-5,-8,-12,-36,-22,15,0
1763470579.897821,1,4,-1,-7,-29,-6,-6,4
1763470579.9128416,-7,-7,-6,7,5,9,1,5
1763470579.9352558,0,0,-5,0,5,-5,-25,-35
1763470579.9488375,-2,-1,0,-3,37,-13,-3,-49
1763470579.9639244,-14,-10,-6,-13,11,-55,-44,-26
1763470579.9728038,7,-3,-11,-21,-28,-18,-65,38
1763470579.9951715,4,5,7,2,5,-47,-24,-42
1763470580.008794,-19,-6,3,7,14,-3,14,-19
1763470580.018109,-6,8,34,75,46,-25,8,-1
1763470580.0402474,12,3,-7,-8,-37,-27,83,28
1763470580.055323,-12,1,5,25,-29,3,-8,57
1763470580.0687742,19,9,-1,-16,40,26,34,-28
1763470580.0853083,-2,1,1,-2,-11,35,-14,36
1763470580.1002414,-16,-3,10,61,49,51,-12,83
1763470580.115535,5,0,16,-40,-31,24,-32,47
1763470580.1293707,29,16,12,-2,-38,-18,-22,5
1763470580.1456833,-7,-16,-13,-11,-5,-97,-68,31
1763470580.1528249,-24,-9,-7,9,-26,-5,-10,-85
1763470580.1751487,-19,4,12,-11,16,-48,4,48
1763470580.1888428,14,90,-2,31,5,54,44,22
1763470580.197949,9,108,24,-54,-11,-40,21,29
1763470580.2128246,17,1,-5,1,54,0,-16,-53
1763470580.2353458,-9,-127,-4,-57,-5,31,-37,-63
1763470580.2492635,17,17,-9,-36,-13,-48,37,45
1763470580.2646544,-9,-8,-20,-62,17,-29,-75,-71
1763470580.2730243,-16,11,-5,2,19,-67,-25,-85
1763470580.2952874,-16,-17,-62,-12,49,93,0,-54
1763470580.3092027,9,-22,3,-10,-29,-24,-13,-7
1763470580.318156,-7,-6,3,23,-7,33,-39,-12
1763470580.3332305,-15,-12,-25,-70,-8,35,65,-74
1763470580.3557904,-2,2,31,44,-23,-34,-38,19
1763470580.361681,-7,-1,20,26,-2,-55,-10,-57
1763470580.3691819,-5,7,17,6,-15,8,12,83
1763470580.378307,-7,4,12,14,-41,-31,20,-29
1763470580.3929088,-13,6,1,44,7,-6,-17,19
1763470580.4231892,-12,1,2,16,-10,-40,-4,-76
1763470580.4376712,-9,18,1,-3,21,-33,-10,46
1763470580.4524112,9,-4,5,22,41,17,28,22
1763470580.458986,8,-8,-19,-29,7,30,60,52
1763470580.4753537,30,14,5,20,-15,41,21,-33
1763470580.5053284,-10,9,-5,-43,-1,24,19,-17
1763470580.5118012,-24,1,-19,8,2,-13,-2,23
1763470580.5204012,-11,-3,-21,-15,-9,-16,9,21
1763470580.5353222,14,-3,9,-4,-31,-65,-19,2
1763470580.557507,15,-20,4,-1,-10,10,-7,-2
1763470580.5726802,-10,11,0,-23,-14,4,0,-65
1763470580.578846,-14,-6,-26,-33,27,34,-23,-75
1763470580.5951767,5,2,1,-53,-14,-93,2,76
1763470580.6177483,-14,11,-7,-15,-26,-30,-45,-50
1763470580.6320558,9,6,15,30,-8,58,39,5
1763470580.6388276,16,4,-13,1,10,23,6,90
1763470580.655223,-2,-3,0,9,-21,-19,-38,-70
1763470580.6780243,-19,-15,-23,-36,-27,-45,-46,-31
1763470580.6922765,-8,-1,0,32,-47,22,-5,-48
1763470580.6991072,10,-5,-3,-7,19,61,-2,57
1763470580.7153056,-21,7,-2,-2,-35,-7,62,-96
1763470580.7383785,1,-4,-10,1,47,-2,-4,78
1763470580.7522082,8,-4,6,59,0,42,12,11
1763470580.7593567,-5,2,-5,59,-8,78,17,-19
1763470580.7767425,-9,-17,-27,-37,-38,24,8,54
1763470580.7977786,12,-2,9,7,36,-27,-20,16
1763470580.812025,10,-14,-15,-1,3,-13,2,-44
1763470580.8190825,-15,5,14,-7,-5,-48,1,-47
1763470580.83532,3,0,-4,-20,13,-14,-11,12
1763470580.8577943,-18,-8,-3,12,28,-22,-26,-8
1763470580.8720934,13,-3,23,45,22,28,31,28
1763470580.878885,-3,7,12,-5,-13,-21,-2,-11
1763470580.8954482,3,-3,-15,-21,14,1,-1,17
1763470580.9179027,8,4,-2,15,1,4,-24,-6
1763470580.9403834,0,-10,6,-7,-38,8,20,-33
1763470580.9545467,1,10,3,-28,-8,2,20,58
1763470580.976981,-11,6,12,1,-12,-86,-49,-15
1763470581.000223,-3,-5,8,37,-10,44,11,5
1763470581.0145977,-9,-2,-13,-49,-33,62,40,-25
1763470581.0371444,4,-13,-2,-23,-21,-59,-25,17
1763470581.0595095,5,-8,-24,-14,22,-38,-6,-15
1763470581.0746088,0,20,21,25,-16,-18,-36,-22
1763470581.0972052,-22,-15,-22,-30,10,40,-28,-8
1763470581.1201317,11,7,11,14,8,38,33,20
1763470581.1345613,-2,8,9,17,-11,6,-15,-22
1763470581.1571684,17,4,22,-15,-11,7,-4,72
1763470581.1794987,16,-1,-17,-13,29,-8,5,45
1763470581.1946867,0,8,1,-31,6,-28,-13,-24
1763470581.217222,17,6,6,-36,44,32,30,47
1763470581.2396345,3,-6,2,45,-1,47,35,14
1763470581.2545774,-27,-11,2,17,-50,-59,10,-83
1763470581.2770565,-9,0,2,4,12,20,-15,-37
1763470581.2996402,4,4,8,14,11,-21,27,-13
1763470581.3145661,5,-9,-8,19,8,-19,58,-36
1763470581.3379817,5,-1,-2,18,-3,-11,-25,42
1763470581.3595507,3,6,4,-16,6,-8,-17,65
1763470581.374686,-5,-1,6,16,13,46,-14,-8
1763470581.3977387,-21,-7,1,12,-11,32,-9,-30
1763470581.4195487,-2,-6,-29,-61,-19,-25,-39,-60
1763470581.4428055,1,11,5,10,40,13,39,-72
1763470581.4571142,-8,-10,-7,-11,18,-26,-26,-2
1763470581.487717,-6,2,3,16,-28,-10,-7,14
1763470581.494675,26,8,14,56,33,43,28,-14
1763470581.517279,-7,-7,-9,-8,-24,-13,-15,-12
1763470581.5408173,-2,-8,-9,-15,-14,39,-24,-23
1763470581.5544932,0,-8,1,9,-20,9,31,124
1763470581.5786762,-6,-9,-2,-46,-31,-32,-13,10
1763470581.607736,-11,-1,-4,21,-33,8,30,-36
1763470581.614594,1,-5,-7,-28,43,55,20,-6
1763470581.6370661,17,9,-2,-32,7,11,-30,-2
1763470581.6594765,-6,6,19,15,11,-13,-18,0
1763470581.6745915,-8,-12,-20,7,42,10,0,-43
1763470581.6970277,-4,5,-5,21,28,7,4,51
1763470581.7194731,4,-2,-21,-11,20,21,0,-21
1763470581.7345858,0,-5,12,-10,-37,1,-16,-45
1763470581.7653382,-7,3,13,-9,-22,-30,-7,-12
1763470581.7795372,-8,-8,-24,-34,-11,-31,25,79
1763470581.794571,5,4,16,28,-50,-67,-35,-13
1763470581.8171632,-12,-4,0,-7,-5,38,9,-31
1763470581.8396692,-7,6,13,27,7,-10,0,12
1763470581.8545375,11,-2,-5,-7,-23,-44,-2,-4
1763470581.8853483,-19,-18,-32,-10,44,45,-37,-67
1763470581.90775,-16,6,6,-44,-2,-19,6,16
1763470581.9141674,0,9,2,39,31,-11,26,101
1763470581.9222565,-2,-8,-9,-17,7,-32,-47,-38
1763470581.9370503,16,3,3,-15,-7,-39,-6,61
1763470581.960074,10,-4,0,44,12,21,-4,-85
1763470581.974789,8,-6,-4,-19,10,-5,0,-42
1763470581.9821932,7,-4,-5,5,10,-4,-10,7
1763470581.9970238,-8,8,8,-37,-1,21,12,55
1763470582.019742,6,-2,-6,-3,3,-49,-29,-30
1763470582.0429544,-11,-7,-1,1,-28,-7,-22,-24
1763470582.056977,13,6,9,17,-23,-4,16,20
1763470582.0796227,9,-1,-23,-20,-20,22,18,-3
1763470582.095513,-3,-5,3,44,-2,13,14,-10
1763470582.1021855,-16,2,14,-37,17,42,17,19
1763470582.1170814,-10,-9,-36,-78,9,0,15,7
1763470582.1395469,4,7,26,23,2,-14,-22,-11
1763470582.1538994,-1,-7,-9,8,-48,-39,-14,-16
1763470582.1621013,-1,3,18,18,-14,-19,-3,39
1763470582.17726,-25,-4,-5,-34,-9,3,14,-21
1763470582.1995497,11,7,31,57,35,73,16,51
1763470582.213909,2,5,14,-3,-41,-4,-22,-34
1763470582.2221012,3,-10,-12,7,16,-51,12,-10
1763470582.2370522,-5,0,4,1,-38,-58,-16,28
1763470582.259515,-5,-1,3,14,20,56,16,-28
1763470582.2740247,4,-1,6,32,-1,-5,-3,-33
1763470582.2820463,10,-6,1,26,-84,24,41,2
1763470582.2971945,10,-6,-27,-34,89,11,15,-41
1763470582.3195643,-1,5,15,39,13,29,3,-7
1763470582.342842,2,2,-4,10,37,62,28,89
1763470582.3575552,8,-4,-9,5,8,-60,30,42
1763470582.3646538,1,4,23,-6,-23,4,28,9
1763470582.3796668,-3,-6,-1,-30,-14,21,34,7
1763470582.4104831,-16,0,13,-7,-60,-28,-39,-60
1763470582.4171872,4,2,-2,6,31,10,-16,-36
1763470582.4395328,18,5,14,36,-18,1,43,45
1763470582.4628384,-5,-9,-25,-48,6,-24,-52,-63
1763470582.4770272,-2,-7,-9,-25,-26,29,-9,25
1763470582.4998097,-1,4,26,58,-9,-20,-40,-44
1763470582.5230691,15,-4,-30,-77,6,-32,-1,-7
1763470582.5374177,-23,-1,6,27,-41,27,13,-5
1763470582.5595965,-9,-9,-14,33,26,-12,-28,-32
1763470582.5829847,-10,3,16,8,22,-32,-6,-4
1763470582.5970833,4,5,-1,-9,-1,-8,9,78
1763470582.6197386,-2,-3,-9,8,-4,-48,-40,60
1763470582.6427023,-8,1,1,1,60,17,-8,-43
1763470582.6570315,-7,5,17,-7,-11,29,33,21
1763470582.6877143,20,-8,-30,-22,36,-6,24,82
1763470582.7024863,4,2,-30,-26,-17,11,-3,32
1763470582.7170987,-1,-7,1,42,30,29,34,-67
1763470582.739602,0,-1,11,-52,-43,-29,-38,-31
1763470582.762075,-1,3,5,3,4,68,9,-24
1763470582.7852836,-4,-4,-3,14,-29,-28,11,-10
1763470582.7995036,-6,1,18,21,-20,23,-6,-59
1763470582.83026,14,1,-9,-41,-9,-19,-7,101
1763470582.8369727,16,11,34,42,-38,-9,1,-15
1763470582.8595128,-13,2,12,46,31,-87,-18,24
1763470582.8822062,-3,-9,-9,-45,-23,-25,-19,-16
1763470582.8972974,-7,3,21,83,19,81,30,-66
1763470582.9198263,6,-5,-46,-75,-5,14,-6,6
1763470582.9502883,-15,-13,-21,-59,-31,-2,13,-39
1763470582.9669552,1,11,23,14,45,72,-9,7
1763470582.979624,8,-8,-13,-10,12,-36,39,-7
1763470583.0187964,3,2,14,-26,-20,-42,-42,-45
1763470583.0247548,12,2,20,69,-14,46,33,-5
1763470583.0403407,-25,-1,7,41,5,7,-45,-120
1763470583.0472946,23,5,16,-35,4,-11,46,68
1763470583.0622292,14,7,-14,-23,-6,20,9,91
1763470583.0765202,-4,-4,0,-7,7,-12,14,84
1763470583.0845628,-16,-12,-17,0,58,-18,-27,-40
1763470583.1080875,-4,9,15,-18,30,27,9,-22
1763470583.1227608,-6,-5,-10,72,-8,31,-15,-34
1763470583.1367757,1,-2,1,-22,-8,20,-8,8
1763470583.1445508,-2,4,2,-4,-12,59,-8,13
1763470583.1595154,2,-7,-15,-22,-31,1,-14,-25
1763470583.1820498,-12,1,-25,-41,48,-3,-1,-19
1763470583.19795,-2,0,12,10,-8,-37,-11,26
1763470583.2046592,-18,-4,-12,78,19,10,-30,-105
1763470583.2195466,6,-7,-33,-46,-34,-36,-42,-42
1763470583.2421474,-22,-2,18,24,-2,-18,9,-34
1763470583.2652094,6,6,9,-6,-14,-25,22,49
1763470583.2796447,10,-6,-13,22,27,-8,16,61
1763470583.3022995,3,-9,-17,-57,-56,17,14,91
1763470583.3255417,3,3,14,-22,-48,25,19,-44
1763470583.3399305,-17,-5,13,39,7,11,4,-47
1763470583.3621948,5,3,-2,1,14,67,-4,-55
1763470583.3853998,2,1,6,44,19,23,5,53
1763470583.399963,2,-2,-30,-1,40,-9,3,-38
1763470583.4222019,17,-2,4,20,-16,25,12,86
1763470583.4455342,5,-4,13,34,60,9,1,30
1763470583.459863,-6,6,9,-34,31,-29,-20,5
1763470583.4824157,-10,0,1,69,11,-18,-9,-4
1763470583.505682,-6,-3,5,-7,-33,1,1,-25
1763470583.5196636,-2,3,6,-14,-15,-17,-28,-60
1763470583.5421093,0,-2,-18,-13,9,64,27,70
1763470583.5652087,-12,0,0,-32,-62,-60,10,-38
1763470583.5795975,-17,-8,-4,-14,24,-8,-38,-106
1763470583.6102746,13,-7,-12,-34,-38,-32,16,51
1763470583.625216,-8,4,-3,-13,-32,-8,-22,-96
1763470583.6395893,1,1,2,11,13,-28,23,29
1763470583.6621344,14,10,8,6,-24,-26,19,97
1763470583.685288,8,5,10,35,19,21,-20,28
1763470583.6994586,-22,-5,15,-12,-25,-17,-30,-42
1763470583.7221324,36,15,13,14,2,14,18,90
1763470583.744983,-8,8,10,-4,12,-12,20,46
1763470583.7598157,-14,-11,-11,-7,46,-19,20,-66
1763470583.782034,-6,-5,-5,-35,-25,-12,-18,-73
1763470583.805355,31,8,-2,2,27,44,1,98
1763470583.8279188,-3,-6,6,11,-32,-31,-24,-56
1763470583.8420858,6,1,-1,-8,-8,27,8,24
1763470583.8654668,-23,-5,-18,-20,13,13,-10,-77
1763470583.8791263,25,1,-22,9,28,19,22,-19
1763470583.8869634,1,6,13,-5,-31,106,11,0
1763470583.9023612,-15,-7,8,23,-10,-4,8,-37
1763470583.9254506,-21,-17,-38,-21,-44,-17,-38,-48
1763470583.939172,4,7,23,28,-12,19,-28,-65
1763470583.9472284,-6,-4,10,38,21,-54,-34,-85
1763470583.9622428,-6,-1,1,5,60,-1,2,1
1763470583.9853055,6,-7,-19,29,10,46,-3,47
1763470583.9989767,-2,1,0,-46,-18,-41,-17,88
1763470584.007053,-5,-11,-24,-22,-21,7,7,-42
1763470584.0222604,18,-11,-7,3,64,49,71,64
1763470584.0454757,-3,5,19,10,-26,-50,-47,20
1763470584.0589151,-3,-3,-2,-9,-14,13,-21,-38
1763470584.067316,-25,-3,10,40,-45,25,8,-83
1763470584.0822322,-13,-5,-2,-26,2,27,55,-23
1763470584.10615,-4,-1,-3,10,1,32,18,-32
1763470584.1189382,0,6,3,-35,-67,-54,-31,-9
1763470584.127233,10,5,33,20,-2,13,-20,14
1763470584.142109,-14,-3,1,-9,-34,-53,-63,-94
1763470584.1654115,1,15,30,28,12,-27,-31,-23
1763470584.1789203,6,12,32,25,-34,-36,10,-31
1763470584.1870716,4,-4,-17,57,-7,18,18,22
1763470584.2024593,10,-6,-13,2,-11,-38,12,28
1763470584.2253,1,1,-4,-10,-9,25,37,7
1763470584.247798,-16,0,7,-19,4,12,-8,-19
1763470584.2626858,0,-8,-5,-8,61,59,2,-23
1763470584.285264,-1,-13,-21,23,44,12,26,13
1763470584.308055,-19,-5,-4,40,42,50,-22,-18
1763470584.3222392,-6,-4,-1,-41,-22,-17,-27,-66
1763470584.345512,-5,-6,-11,-18,13,9,42,-31
1763470584.3680453,1,-5,-9,17,7,-25,-18,33
1763470584.3821492,5,1,-9,27,-7,-65,21,103
1763470584.4055371,12,-2,-4,-6,-30,25,-12,-24
1763470584.427632,2,4,1,-13,-17,6,-8,-16
1763470584.4351037,-19,-5,5,-17,-27,28,-1,-29
1763470584.4423165,11,-5,-16,13,28,-7,15,76
1763470584.4655135,-17,-2,-17,-8,0,-5,-15,-46
1763470584.4878259,-15,8,20,-53,-22,28,9,-27
1763470584.5021198,14,3,4,30,-34,-6,3,57
1763470584.524673,19,-5,-32,-65,7,-10,-23,72
1763470584.5479054,-1,8,38,62,14,49,6,9
1763470584.562319,6,-12,-20,-28,-20,-20,-11,57
1763470584.5846624,-7,4,25,48,-4,-6,-10,-51
1763470584.6077824,-16,-4,-4,-13,-68,-39,-2,-91
1763470584.6303873,12,-1,-12,-10,-14,-70,12,37
1763470584.6445673,-10,-3,7,-45,41,0,0,-34
1763470584.667841,-7,-2,-3,-20,47,21,-16,-59
1763470584.6820529,6,2,0,-4,-38,21,-13,-11
1763470584.7046235,-3,-2,-15,32,-52,17,18,11
1763470584.7278054,8,4,3,22,54,30,-3,14
1763470584.7421615,-16,-1,-27,13,39,95,93,-2
1763470584.764622,-14,-5,-4,5,13,-13,-26,37
1763470584.7878294,-11,-12,-12,26,17,-12,-47,-53
1763470584.802123,13,3,-1,-39,9,-52,0,12
1763470584.8246522,0,-10,2,-2,-6,13,14,0
1763470584.8480444,9,9,25,32,19,3,15,21
1763470584.8614655,-9,18,-7,-9,-27,-19,-38,-11
1763470584.8697011,-14,-2,11,6,6,5,1,11
1763470584.8850064,20,-8,-7,-20,14,-13,-7,-8
1763470584.9078848,6,-6,3,-12,-20,1,-4,-6
1763470584.921382,14,8,7,4,-1,9,3,17
1763470584.9296875,-43,11,-11,-10,-21,-14,-3,-5
1763470584.952814,13,-4,11,7,-4,2,47,8
1763470584.9678268,-15,-16,3,-10,-6,3,-7,-12
1763470584.981489,8,-16,-7,1,-24,-4,-20,-1
1763470584.9896975,39,3,20,0,40,-6,-19,10
1763470585.004679,2,-4,-25,8,0,-2,-11,-26
1763470585.0352871,4,7,11,-20,-10,-21,-8,10
1763470585.041741,-12,6,3,-45,-18,2,5,-14
1763470585.0496647,-14,-9,-1,29,12,5,-4,-7
1763470585.064584,-19,-8,-33,-42,-2,-2,-11,-7
1763470585.0953326,-3,-12,14,48,2,3,3,5
1763470585.1013627,-1,7,15,28,10,1,1,5
1763470585.1097455,-5,-8,-25,-36,-5,-3,-10,-7
1763470585.1247241,-3,5,3,-1,2,0,1,3
1763470585.14928,-6,-9,-11,-3,-1,1,-4,2
1763470585.170339,-1,6,16,6,-4,1,0,1
1763470585.1846342,-12,-12,-17,-14,-22,-4,-4,-3
1763470585.2077463,-1,-4,-2,5,6,-2,-2,-1
1763470585.2302473,-1,14,2,2,12,2,2,-1
1763470585.244522,-2,2,-1,12,19,3,-1,0
1763470585.267803,-2,4,8,1,-7,0,-2,0
1763470585.290515,-1,6,-4,-4,10,2,-1,-1
1763470585.304754,2,4,1,-1,-2,-2,0,-1
1763470585.3279543,-3,-1,1,1,-4,-4,-2,-1
1763470585.350973,-2,-2,-2,-12,-4,4,1,-3
1763470585.365749,0,-3,-2,2,1,-2,-2,0
1763470585.3877988,2,-1,0,18,4,-3,1,-1
1763470585.4102716,-1,0,0,-12,-12,-5,-2,0
1763470585.4245667,-4,-5,-1,13,10,0,-1,1
1763470585.4477904,4,1,7,-5,-5,-1,-1,1
1763470585.4703877,-20,-2,-1,1,1,1,-1,0
1763470585.4846318,24,0,-3,-8,-3,0,0,-1
1763470585.5154357,-5,1,1,-2,1,0,-1,0
1763470585.5303388,-4,-1,1,-2,-2,1,1,-1
1763470585.552862,-6,-2,-2,-1,1,-1,-1,-2
1763470585.5678093,1,-1,0,3,8,0,0,-2
1763470585.5904336,4,-1,-2,-9,-8,-2,-1,-1
1763470585.6046634,-3,0,-2,-1,-1,0,-1,-1
1763470585.6353257,-2,0,-4,-2,-4,-1,1,0
1763470585.650834,-2,-2,1,-4,-3,-1,-2,-1
1763470585.6646898,-1,-1,-1,-2,-3,4,-1,-2
1763470585.6879342,0,1,-1,2,0,-5,1,1
1763470585.710303,-1,-1,0,4,2,-2,-1,-1
1763470585.724004,-1,-1,0,1,1,0,0,0
1763470585.732155,-1,-1,-1,-9,-1,-1,1,-1
1763470585.7478456,-2,-1,-1,2,2,-2,1,0
1763470585.770325,0,-2,-3,-3,-2,-2,0,0
1763470585.7840831,-1,-1,-1,-2,-3,-2,-1,-1
1763470585.7921233,-1,0,-1,1,-2,-1,-1,-1
1763470585.8077538,-1,-1,-1,-2,0,1,-1,0
1763470585.8377829,-1,0,3,-2,-2,-1,-1,-1
1763470585.8438458,1,-1,-3,0,-1,-1,-2,1
1763470585.852176,-1,0,-1,0,-1,-1,1,0
1763470585.867127,-1,-1,2,-2,0,-2,-1,-1
1763470585.8904114,-2,-2,-2,-3,-2,1,-2,-1
1763470585.904026,-1,-2,2,13,1,-2,-1,-3
1763470585.9122238,0,1,2,4,-1,0,-1,1
1763470585.928218,-2,1,1,-3,-2,-1,-2,-2
1763470585.950286,-1,-2,-1,4,0,0,-2,-1
1763470585.9640255,-1,-2,-2,-5,-1,-1,1,-1
1763470585.972075,0,-2,-1,0,0,0,0,0
1763470585.9878695,1,0,0,-2,-1,-3,-1,0
1763470586.0103946,-2,-5,-5,-4,-1,-1,1,0
1763470586.0239127,0,-1,-2,-5,-2,0,-1,0
1763470586.0322502,0,-1,-3,-5,-2,-1,0,0
1763470586.0479424,0,-1,-1,2,-1,2,0,1
1763470586.0704966,0,0,-1,-4,-3,-2,-1,-3
1763470586.0841265,-3,-2,-3,-4,-2,-1,-2,-1
1763470586.092417,0,-2,-1,-1,-3,-3,-1,-2
1763470586.1068957,0,1,1,0,-4,-2,-1,0
1763470586.11471,-1,-1,-2,-1,-2,-2,0,-2
1763470586.1305416,-1,0,0,-2,1,-1,-2,-2
1763470586.160703,-1,-1,-4,-4,-1,0,0,0
1763470586.1673303,-1,-2,-3,0,-2,-3,-2,0
1763470586.190653,-2,1,-3,-3,-2,1,-1,-2
1763470586.2129014,-1,-3,-7,-4,6,-1,1,-1
1763470586.227411,0,0,4,4,-4,0,-2,-1
1763470586.250355,1,-4,-1,-1,2,-2,-2,-2
1763470586.2729478,-2,-1,-2,0,-2,-4,-2,1
1763470586.2873652,0,-1,-1,0,-2,-1,-2,-1
1763470586.3105404,0,0,-1,0,-1,1,0,0
1763470586.3328767,0,-2,0,0,-3,0,1,0
1763470586.3472714,-2,-3,-3,-2,-1,-1,-1,-1
1763470586.370379,-2,1,0,-6,0,-2,0,0
1763470586.3928092,-2,-1,1,2,2,0,-1,-4
1763470586.4065344,-1,0,0,-3,-1,-2,-1,-1
1763470586.4154787,-2,0,0,2,-1,-1,-2,-2
1763470586.4304843,0,0,-1,1,-2,-2,0,0
1763470586.4529755,-2,-1,1,-2,-3,0,-2,-1
1763470586.4665077,-2,0,1,-1,0,1,-1,0
1763470586.4756124,-2,-1,-1,-9,-1,0,0,-1
1763470586.4903297,-1,0,-1,3,0,-2,-2,-1
1763470586.5127668,-1,-1,-2,-2,0,0,1,-1
1763470586.526491,-1,-2,-2,0,-1,-1,-1,0
1763470586.535455,-1,0,-1,-2,1,-1,-1,-1
1763470586.54946,-1,0,-2,-1,-3,-2,0,-2
1763470586.557893,-1,-2,-1,-1,0,0,-2,-1
1763470586.572769,-1,-2,0,14,0,-1,0,-2
1763470586.5864458,1,-1,2,-4,0,-2,-1,-1
1763470586.595462,-2,-2,-1,0,1,0,1,-2
1763470586.6103344,-1,-1,1,-3,-1,-1,-2,0
1763470586.6328733,-1,0,2,-4,-4,-3,-2,-2
1763470586.6464725,0,-2,-2,1,0,-1,-1,0
1763470586.655504,-1,-1,-2,-4,-3,-3,-2,-3
1763470586.6703937,-2,-1,-5,-5,-1,2,0,-1
1763470586.6929154,-1,0,-1,-2,-1,0,-1,0
1763470586.7066321,0,-1,0,2,0,-5,-3,-1
1763470586.7155688,-1,1,0,-3,-2,-2,-2,0
1763470586.7303615,0,-2,1,1,1,1,2,0
1763470586.7528582,-2,-3,-4,12,1,-1,-1,-1
1763470586.7664468,-1,1,0,-6,-3,-1,-2,-1
1763470586.7755513,0,-1,-3,-2,-2,-1,-1,-1
1763470586.7903368,-1,-2,-4,-8,-2,1,-1,-2
1763470586.8128524,-1,1,0,-3,-3,-3,-2,-1
1763470586.8265247,-2,-1,0,-1,-1,0,-2,-1
1763470586.8354468,0,-2,-3,-1,0,-3,0,-2
1763470586.8503847,0,0,-2,-3,0,-2,-2,-1
1763470586.872849,-1,-1,-1,-4,0,0,1,0
1763470586.886464,-1,-2,2,-1,-3,0,0,-1
1763470586.8954506,-1,-2,0,-2,-1,-2,-1,0
1763470586.9103792,-1,-1,1,-1,0,0,-2,-1
1763470586.9335082,1,1,-1,2,1,1,-1,0
1763470586.9469132,-1,-2,-3,-1,-1,-2,-3,-3
1763470586.9554255,0,0,-3,-4,-1,0,1,0
1763470586.9702692,-1,1,-3,6,-2,-2,-2,-1
1763470586.9927332,0,-1,0,-4,0,0,-2,-1
1763470587.0063932,-2,-1,-3,-3,-1,-1,-1,-1
1763470587.0154376,-1,-2,0,-1,0,-1,-2,-1
1763470587.0303307,-2,-3,-6,-2,1,1,2,-1
1763470587.0528128,-1,0,0,-2,-5,-4,0,-2
1763470587.0828662,0,-2,1,1,-1,-3,-2,-2
1763470587.0902846,-1,-3,1,-5,-3,-1,0,0
1763470587.1128855,0,0,-1,1,0,0,-1,0
1763470587.1354353,-2,0,0,-1,-1,0,-1,-1
1763470587.1497717,0,0,-1,9,0,0,0,-1
1763470587.1563945,-1,-1,-1,0,0,0,0,0
1763470587.1728911,0,0,-2,-7,-2,0,-3,1
1763470587.1954496,-1,-1,-1,-3,-3,-5,-1,-1
1763470587.2097135,-1,0,-1,-3,-1,-1,-2,-1
1763470587.2164476,2,0,2,0,-1,-3,0,-1
1763470587.2328534,-2,0,0,-1,0,1,0,0
1763470587.255383,-2,-1,0,-2,-2,-2,0,0
1763470587.270047,0,-3,-5,-7,0,-1,-3,0
1763470587.2764823,-2,0,-2,-6,0,0,0,-1
1763470587.2927873,-2,-1,0,2,1,-1,0,0
1763470587.315475,-1,0,0,-2,-1,0,0,-2
1763470587.3298473,0,-3,-2,-3,-2,1,-1,-3
1763470587.3365202,0,-2,-1,1,0,-2,-1,1
1763470587.3529208,-1,-2,-2,0,-2,0,0,-1
1763470587.375511,-1,-1,-1,0,0,-2,1,-2
1763470587.3899457,-3,-3,-1,11,-4,-3,0,0
1763470587.3967142,0,-1,-2,1,1,3,2,0
1763470587.4129908,-1,0,0,-2,3,1,-1,0
1763470587.4354086,-2,-1,-1,-2,0,0,-3,-1
1763470587.4496777,-1,-2,0,-3,-1,1,0,-2
1763470587.4565315,-3,-1,-3,0,-2,-1,0,-2
1763470587.4729016,0,-1,-2,-3,-2,0,-1,0
1763470587.4955072,-1,0,0,-2,-1,-1,-2,0
1763470587.5097358,-2,-3,-2,1,0,-1,-2,0
1763470587.5165143,-1,0,-1,-2,-2,-4,0,-1
1763470587.5328016,0,-1,3,8,1,0,1,-2
1763470587.5553577,-1,-1,-1,-6,0,0,1,-1
1763470587.5690646,-1,-1,-2,3,-1,0,-1,-1
1763470587.5779192,0,-1,0,0,1,-2,-1,0
1763470587.5928156,1,0,0,-4,-2,-1,0,-2
1763470587.6153796,-2,-1,-2,-6,1,-1,0,-1
1763470587.629507,0,1,1,-2,-1,-4,-2,-2
1763470587.6378393,0,1,-1,1,-3,-5,-3,0
1763470587.6528,-4,0,0,0,-3,-2,-2,0
1763470587.6832447,0,0,-3,-14,-4,-1,-1,0
1763470587.689012,0,-1,-3,-1,-1,2,0,1
1763470587.6987467,-1,-2,0,-1,-1,0,0,-1
1763470587.7131596,-3,1,-2,-1,-1,-1,-1,-1
1763470587.7353494,-2,-3,-2,2,0,0,-2,-1
1763470587.7492006,0,-1,0,3,-2,-4,-2,-3
1763470587.7583086,0,-1,-2,-2,-1,-2,0,-1
1763470587.7725244,-1,-1,-2,-1,-1,0,0,-1
1763470587.778987,-3,-1,3,8,2,2,-1,-2
1763470587.7953403,-3,-1,1,2,-2,-3,0,-1
1763470587.8089347,-1,-1,-1,-2,-1,-2,-1,-1
1763470587.8179772,0,-1,0,0,-1,-2,-2,-1
1763470587.832778,2,-3,-1,-2,-2,0,-3,0
1763470587.8554833,-2,2,0,1,0,0,-1,-1
1763470587.8690534,-1,-1,-1,-1,1,0,0,-1
1763470587.8779812,1,-1,0,-3,-3,-2,0,-1
1763470587.892896,-1,0,-1,-2,-1,-3,-2,-2
1763470587.9154372,-1,-3,-2,-2,-2,-1,0,-2
1763470587.9291465,0,-1,-2,2,0,-3,-1,-1
1763470587.937931,-2,-1,-1,-2,1,-1,-1,-1
1763470587.95289,0,0,1,1,-3,-2,1,-1
1763470587.9753256,-2,-2,-1,-4,-8,-2,0,0
1763470588.0053403,-1,-2,-3,0,2,2,-1,-1
1763470588.0127265,0,-1,-2,3,0,-1,-1,0
1763470588.0354135,0,0,-2,-2,1,0,-1,-1
1763470588.0577776,-1,-3,-2,-2,-2,0,0,-2
1763470588.07277,-1,-2,0,0,2,-1,-1,-3
1763470588.102782,-1,0,-1,-3,0,0,0,0
1763470588.117802,-1,0,1,-2,-2,0,-2,-2
1763470588.1323392,0,-1,1,1,-1,0,-1,0
1763470588.1390603,-1,-2,-3,-2,0,-2,0,-3
1763470588.155461,-1,-1,-1,1,0,0,-2,0
1763470588.1777875,-2,0,-1,-4,-1,-1,-1,-1
1763470588.1921954,-2,-2,-1,0,0,-2,-1,-1
1763470588.1991642,-1,-2,0,0,0,-2,-1,-2
1763470588.2156026,-2,-1,0,-2,1,-2,1,-1
1763470588.2379863,0,-2,-3,-4,0,-1,-2,0
1763470588.252123,0,0,0,-1,-2,0,-2,-1
1763470588.2589483,0,-3,-3,-5,1,0,0,-3
1763470588.2754805,0,0,0,-1,-1,0,-1,-1
1763470588.2977924,-1,-1,-1,-2,-3,-1,2,-1
1763470588.3122406,0,0,-1,3,-2,-4,-4,-2
1763470588.3189254,-2,-2,0,2,0,1,-1,-1
1763470588.335333,0,-1,-3,-1,-2,0,0,0
1763470588.3578496,-2,-3,-1,-1,-3,1,-1,-1
1763470588.3722563,0,-1,-6,-9,1,0,-1,-1
1763470588.3789818,-2,-1,-2,1,-1,1,-1,-3
1763470588.3954194,0,-1,0,0,1,-1,0,-1
1763470588.4254265,0,-3,0,0,0,0,-2,0
1763470588.4322286,-1,-1,-2,0,-2,-3,-2,-1
1763470588.439033,0,-1,-1,-1,-1,0,0,0
1763470588.4553907,-2,0,0,2,0,-1,0,-3
1763470588.47785,0,-1,-2,-1,0,0,1,-1
1763470588.4915745,-2,-1,0,-2,1,-2,-2,-1
1763470588.5005002,1,1,0,0,0,-2,-1,0
1763470588.5156066,-2,-1,0,1,0,0,0,-1
1763470588.5378857,-1,-3,-3,-1,-1,1,-1,1
1763470588.5605521,-2,-2,-2,-3,-1,-1,-1,-1
1763470588.5753546,1,0,0,1,-3,-1,-1,-1
1763470588.5976524,-2,0,0,2,0,1,-1,-1
1763470588.6121294,-2,-2,-2,-3,-1,2,-1,-2
1763470588.6203842,1,-2,-1,-1,-1,-2,-1,-3
1763470588.6353717,-1,-1,1,0,0,-2,1,-2
1763470588.6577933,-2,-2,-3,0,-1,-1,-1,-2
1763470588.6714764,-3,0,-2,-3,-1,-1,-2,-1
1763470588.6803951,-1,-1,-2,-2,0,0,-1,-1
1763470588.6952424,-1,-2,-2,-1,-3,-1,0,0
1763470588.7014685,0,1,1,0,-1,-1,1,-1
1763470588.717768,0,0,-2,-3,-2,-1,-1,0
1763470588.7314472,0,-2,0,13,0,-2,-1,0
1763470588.7404482,0,0,-1,0,-1,-2,-1,-1
1763470588.755325,-1,0,2,-5,-1,-3,-1,-3
1763470588.777808,0,-1,-3,-4,-1,1,-1,0
1763470588.7914743,0,0,0,1,2,1,1,-1
1763470588.800559,-1,-7,3,3,-2,-1,0,-1
1763470588.8153682,0,21,8,1,2,0,0,-1
1763470588.8377962,-5,-7,-10,6,-8,3,-1,0
1763470588.8515465,-4,-3,1,4,47,8,0,0
1763470588.8603678,-4,7,11,-3,3,18,4,1
1763470588.8746138,1,10,3,-12,-10,-3,-2,1
1763470588.8814368,-9,-25,3,-4,16,-16,0,-3
1763470588.897841,3,-14,-12,-22,-19,30,5,0
1763470588.911436,-5,-3,-2,-5,-12,-26,-10,0
1763470588.9204326,2,-4,-4,0,37,60,3,1
1763470588.9346774,1,-6,-1,7,7,-3,-5,-1
1763470588.9414012,-5,0,-11,-11,-10,-15,-6,-3
1763470588.9578247,0,3,8,23,15,6,4,-2
1763470588.980491,-7,0,0,-31,-39,-19,-3,-4
1763470588.9947822,-3,-1,-2,6,7,-9,2,-2
1763470589.0014434,2,-1,-1,-9,-19,1,0,-2
1763470589.0255527,7,-7,-8,-6,-3,1,17,-2
1763470589.0404458,0,-1,2,16,30,10,-5,-4
1763470589.0548766,2,-1,0,-5,-8,-3,-4,1
1763470589.0616195,-1,-1,-7,-15,12,32,6,3
1763470589.0778446,-5,-6,-5,-1,-7,-32,-1,1
1763470589.100511,-3,-5,0,0,0,-5,-23,-7
1763470589.114729,0,2,3,5,-10,-9,-2,-3
1763470589.1216376,-1,-4,-4,-6,-7,-10,-8,-2
1763470589.1380093,-3,-3,-3,-3,0,-2,-8,-1
1763470589.1595259,-8,-8,-9,-7,0,-2,-59,-51
1763470589.168021,2,5,4,4,-2,-20,-11,-24
1763470589.1746488,21,7,3,-7,-3,49,89,101
1763470589.1815076,-2,-3,-1,22,46,-23,-11,38
1763470589.2128363,-5,12,11,-14,0,-18,-33,-42
1763470589.220278,32,0,-10,36,13,15,52,64
1763470589.233963,-20,-6,-14,-36,-42,13,-64,-60
1763470589.2429645,4,2,1,24,-52,-46,5,61
1763470589.2578573,2,4,11,-22,-52,-18,12,-17
1763470589.2804537,-9,0,11,7,-5,43,100,-30
1763470589.2941813,-7,-15,-21,10,73,-6,-5,-3
1763470589.3032143,3,11,14,-52,-54,-109,-39,-21
1763470589.3179808,-10,-1,8,-21,7,-19,-21,-40
1763470589.3403597,-6,-14,-8,-55,-13,14,-61,50
1763470589.3541033,-12,53,23,39,-23,-94,107,34
1763470589.3630347,15,125,28,40,5,28,-26,-65
1763470589.3778493,6,125,-5,0,18,28,-88,-88
1763470589.4005823,-15,-128,11,78,-36,-44,-90,-8
1763470589.414198,37,-7,36,7,4,39,58,104
1763470589.4230485,21,-80,2,13,34,127,79,17
1763470589.4455488,-61,-57,-23,-16,13,35,-23,-29
1763470589.4604,-22,27,-47,-5,10,-19,-6,-44
1763470589.4739666,26,-52,1,-51,-50,-18,-7,78
1763470589.4831605,-15,-16,1,39,5,-19,-26,-13
1763470589.4979444,0,1,30,18,40,32,1,32
1763470589.5204844,-17,53,-16,-22,4,39,2,-60
1763470589.5340388,7,-12,5,28,-9,-23,5,-24
1763470589.5430691,8,5,-2,-9,-18,48,10,-60
1763470589.558239,13,-22,32,58,72,69,79,30
1763470589.5803988,18,-8,9,48,-11,-4,-20,-17
1763470589.593978,2,-14,-18,-36,-20,-14,-17,-21
1763470589.6028743,7,29,9,31,29,2,20,78
1763470589.6177626,6,-3,24,60,28,2,-17,6
1763470589.6403022,-28,8,7,-43,-20,-25,-30,-76
1763470589.653994,-9,24,-26,-29,5,4,-18,-30
1763470589.6629145,-13,18,24,3,-19,44,-48,-47
1763470589.6778162,25,-2,1,-34,-32,-74,-17,105
1763470589.70038,-12,-10,17,18,22,21,34,7
1763470589.724282,-1,26,-65,-78,-30,-15,47,77
1763470589.7380333,10,15,-26,-5,6,-4,49,-40
1763470589.760551,5,-25,8,16,3,54,-60,13
1763470589.7741394,-2,-39,-9,41,-23,-104,-55,-85
1763470589.7829952,7,9,19,33,-27,38,17,73
1763470589.797824,-6,-29,-30,-71,-43,-83,-15,-1
1763470589.8204324,4,6,-2,-8,33,53,61,114
1763470589.8431413,25,22,16,24,31,46,4,-54
1763470589.8579752,4,-25,17,48,-42,-19,-17,-68
1763470589.8878825,-7,-1,-1,-9,13,-39,5,9
1763470589.9027834,-2,14,-10,-37,10,-21,1,73
1763470589.9180017,8,24,-1,-14,-5,53,7,55
1763470589.9485002,10,7,25,49,-14,38,-17,-50
1763470589.9629037,4,-23,15,-5,20,5,-30,-43
1763470589.9772472,-9,-15,-14,-32,-36,-63,5,11
1763470589.9839923,13,-15,-23,-15,-42,20,-12,7
1763470590.000399,-12,7,-11,-56,21,42,7,-25
1763470590.0228906,0,-17,10,19,-21,-10,18,0
1763470590.0372474,6,-14,10,60,-13,59,31,-24
1763470590.0440066,-10,-42,4,9,-16,-5,3,-19
1763470590.0604248,11,31,-4,9,39,-8,-27,75
1763470590.0828006,-9,8,18,33,28,-44,-40,-63
1763470590.097319,-17,-16,-11,-16,-26,11,-18,-16
1763470590.1040835,-16,-10,-38,-11,-13,-8,-13,5
1763470590.1205533,-18,-11,12,9,12,-25,-4,-26
1763470590.142846,13,62,-15,-30,2,-4,67,-20
1763470590.1571376,10,47,-9,-34,-32,-84,-26,43
1763470590.1639552,-4,20,9,20,18,-12,4,-27
1763470590.1802754,-21,-7,-27,-26,-18,-33,-26,-44
1763470590.2029898,22,35,24,53,9,25,-27,108
1763470590.2171967,4,-35,9,50,-57,21,33,37
1763470590.224042,-22,-3,6,17,4,12,10,-22
1763470590.2403088,-17,-10,9,27,66,-41,-19,-64
1763470590.2629745,-23,-25,11,11,-106,-15,-26,-41
1763470590.277789,2,20,-22,-30,6,14,-6,-1
1763470590.2840343,-3,39,0,58,68,33,10,-9
1763470590.3006284,19,-1,7,-31,23,73,63,73
1763470590.3229802,-18,-4,-24,-1,-9,-86,-42,-42
1763470590.3372853,-18,5,-11,-2,-15,31,-13,-27
1763470590.344122,-13,21,-1,20,-15,-76,9,-30
1763470590.36048,9,-36,-8,-65,1,94,55,28
1763470590.3828304,-5,6,-14,34,87,11,0,81
1763470590.3964877,8,19,16,6,2,-45,-9,-43
1763470590.4057539,-9,27,-2,-33,-21,-1,-11,-28
1763470590.4203413,-14,0,-5,18,8,-46,-17,-37
1763470590.4430406,-3,-4,-37,-44,-5,48,36,-12
1763470590.4567168,-2,1,17,9,-26,9,-35,-48
1763470590.465463,-22,-4,-27,-77,-48,-9,-24,-52
1763470590.4804108,9,-3,18,13,48,52,23,43
1763470590.5029979,13,35,10,0,-32,-30,4,80
1763470590.5166771,-6,-13,-10,-8,-7,22,13,-49
1763470590.525471,-34,24,-18,-26,3,-47,-47,-44
1763470590.5406325,17,-12,-14,-23,0,-29,6,55
1763470590.5629964,7,2,13,-14,2,15,-13,-19
1763470590.5766387,-12,-12,-5,-1,-28,-19,19,18
1763470590.585666,-4,4,-17,22,0,16,12,-10
1763470590.6003432,-8,-9,5,-13,15,18,-49,-61
1763470590.6230543,3,13,-1,-7,-20,29,8,-7
1763470590.6365452,-18,-41,1,2,-27,-27,-18,-42
1763470590.6456907,19,2,-6,-26,24,6,-22,-2
1763470590.6603725,13,2,-6,54,25,16,17,32
1763470590.6828904,-14,11,-12,29,26,30,-11,24
1763470590.6967576,-15,42,33,2,-27,-12,-5,31
1763470590.7056375,5,3,-7,-14,2,14,31,11
1763470590.7206643,16,-19,-3,9,35,10,45,-30
1763470590.7429962,4,-17,-7,-47,3,-54,-44,-59
1763470590.756489,21,-12,-16,-18,4,-50,37,54
1763470590.7656336,21,-5,7,-29,38,46,-5,34
1763470590.7804563,-13,-31,-50,-29,14,-4,-6,-66
1763470590.8029256,-10,0,25,5,-7,10,-26,-29
1763470590.816827,28,22,17,43,29,56,27,102
1763470590.8259196,-2,28,6,-59,-40,69,12,9
1763470590.8403757,-16,-10,-1,4,-16,-36,-17,-53
1763470590.8629408,7,-4,9,3,-34,-10,7,15
1763470590.8856611,0,6,9,-2,-17,-4,-29,-39
1763470590.9008093,4,23,3,-20,12,17,22,74
1763470590.922985,-8,-17,-2,18,47,-32,-19,-69
1763470590.9453952,-8,18,-9,-8,-30,-2,0,-11
1763470590.9679227,-11,-17,1,-7,-12,39,7,-36
1763470590.982817,-10,10,6,-9,-13,34,24,-60
1763470591.0053606,9,-21,-8,-10,-18,-47,-14,52
1763470591.0197318,-15,-8,-4,37,29,39,30,43
1763470591.02653,-4,5,-2,-8,6,50,9,5
1763470591.0429788,-7,-30,11,6,0,9,-2,16
1763470591.0654323,-5,12,-14,10,-29,-67,-21,-28
1763470591.079851,6,22,2,-7,4,7,30,-3
1763470591.0866358,2,10,-18,-14,-32,-5,27,81
1763470591.1104045,10,-14,-2,-37,-15,12,-11,-5
1763470591.1253436,-7,-8,5,8,-8,-41,-33,3
1763470591.1397207,29,10,17,17,-6,24,10,19
1763470591.1466932,-13,-6,-1,-44,-25,33,6,-16
1763470591.1629868,-12,3,-15,14,41,-17,3,-16
1763470591.1855412,-12,-5,-5,-23,-2,-1,-4,-16
1763470591.1997566,4,-6,-35,-77,-24,10,-11,-51
1763470591.2064278,-18,8,20,55,6,-45,-32,-63
1763470591.2232776,10,5,4,-21,-7,-16,24,51
1763470591.245703,17,-2,12,50,1,-3,4,9
1763470591.2597647,-11,-7,5,-17,-34,-21,-27,-33
1763470591.2665796,11,-14,4,-11,10,49,46,-10
1763470591.2829003,-6,-7,1,1,15,-10,-19,-35
1763470591.3055477,5,3,-2,4,-22,-66,9,34
1763470591.3191044,-10,-18,3,55,58,41,16,-36
1763470591.3281932,-10,9,-13,-13,-18,-22,-6,-4
1763470591.3428597,3,2,-10,-24,-8,18,-9,-25
1763470591.365327,-11,6,22,47,14,8,-4,-62
1763470591.3878667,-17,-4,-8,-4,3,17,-16,-7
1763470591.402923,-8,-10,-15,14,-28,-17,-15,-2
1763470591.4252572,2,-1,6,-25,-37,-7,-12,-44
1763470591.4325857,-1,-3,8,40,-10,21,8,-21
1763470591.4390988,-8,-11,-11,-16,6,18,-23,10
1763470591.4481094,-10,3,-1,10,41,32,-3,-22
1763470591.4629884,9,-2,-4,-1,15,33,-8,65
1763470591.485426,3,3,5,-2,-20,-62,-18,-20
1763470591.499246,8,5,-13,-18,14,-3,-5,21
1763470591.5081108,-8,7,21,11,-16,-43,12,12
1763470591.522908,7,9,14,-4,0,-23,-9,19
1763470591.5454519,-1,-7,6,14,12,0,11,3
1763470591.567951,5,-5,-9,-27,-21,-14,18,-18
1763470591.5829933,-6,0,15,30,9,6,-28,-25
1763470591.621075,6,1,6,4,2,5,3,16
1763470591.6280732,13,7,12,38,58,2,-19,47
1763470591.6428554,1,-6,-6,-4,-7,-25,6,46
1763470591.665351,-3,0,-13,6,-2,25,14,-7
1763470591.6796403,-9,-6,1,-5,-9,17,-9,-51
1763470591.6881244,-6,2,17,-9,-2,-29,-31,-26
1763470591.7029314,-17,4,10,21,44,46,2,33
1763470591.7255328,-6,4,-6,11,23,-15,-2,19
1763470591.7389393,2,-2,2,14,-13,-19,13,-45
1763470591.7540221,-8,-5,-7,7,-5,8,-11,-59
1763470591.763,11,0,-6,-40,-50,-29,-18,21
1763470591.7856107,0,3,2,-37,-38,-37,-23,11
1763470591.8080096,0,-4,3,7,-19,30,0,-27
1763470591.8231268,-18,0,-10,-15,-13,5,41,37
1763470591.845538,-2,-11,-25,19,12,-9,2,-59
1763470591.8757188,-6,4,18,53,48,11,-3,-3
1763470591.8905094,8,-5,-17,-45,10,-25,0,16
1763470591.905308,13,8,12,2,-34,28,40,47
1763470591.9278722,-21,-10,-15,3,45,48,-11,-31
1763470591.9426227,-14,-7,-13,-63,20,-17,-32,-38
1763470591.9489615,2,-5,-15,28,8,-12,-12,48
1763470591.9653213,4,4,7,21,-29,-16,11,-16
1763470591.9879236,-1,4,-1,-15,-17,9,2,17
1763470592.0022695,-13,-4,8,1,-3,-34,-2,-30
1763470592.008954,1,3,6,10,-6,-7,-18,1
1763470592.025439,28,5,4,-25,7,7,54,79
1763470592.0479314,-6,-4,-11,6,-10,33,-18,41
1763470592.0622792,5,-1,-4,3,13,-6,-6,-5
1763470592.069071,-4,-1,1,8,10,2,-1,-14
1763470592.0854812,-6,2,1,-12,3,-14,20,-70
1763470592.108193,-1,-1,6,51,29,34,-9,7
1763470592.1223407,-5,-2,9,19,-14,17,0,34
1763470592.1290233,0,-6,-3,2,17,-9,14,-40
1763470592.145568,7,3,-3,-21,-12,24,-23,38
1763470592.1678507,-5,-10,-16,-16,12,-18,5,-23
1763470592.1821375,12,-1,19,45,-10,-22,-20,10
1763470592.1890545,11,-1,-10,-9,18,4,11,41
1763470592.20537,-9,-3,-8,-40,1,1,-4,-19
1763470592.228679,1,3,5,9,-23,-5,25,-66
1763470592.242224,-1,-2,-24,10,11,-8,11,61
1763470592.2490351,11,-1,-5,6,30,-8,9,-1
1763470592.2653623,9,-4,-17,-27,5,-6,-14,-6
1763470592.2880156,-8,-3,1,-2,1,-37,3,-69
1763470592.3106024,-10,-4,-10,-1,-19,-8,1,-2
1763470592.3253708,3,2,11,-18,45,39,-17,8
1763470592.3555198,-4,0,2,-6,-7,-50,-33,-11
1763470592.3616512,9,4,-14,-7,24,2,-13,32
1763470592.3706856,8,-2,-1,-12,-37,-30,6,3
1763470592.385407,-8,-1,11,21,-27,8,-3,-18
1763470592.407958,0,-3,-8,-39,-18,2,19,5
1763470592.4214795,1,0,0,16,-9,26,-2,5
1763470592.430567,-12,2,6,-12,9,19,-5,-46
1763470592.4528422,10,2,8,-2,-27,-10,21,6
1763470592.467946,-6,-5,9,69,47,-24,18,-1
1763470592.4904938,-3,0,-1,-5,-2,-28,13,-33
1763470592.5053775,-3,1,1,11,6,10,-25,16
1763470592.5279438,-6,9,34,-7,-1,-10,-37,18
1763470592.5414858,-3,2,6,7,-12,12,-19,-12
1763470592.5505366,-23,-3,-3,21,9,-17,-23,-23
1763470592.5653338,-1,-2,4,45,-18,-33,-9,-56
1763470592.5885384,-13,-5,-17,-34,-9,24,15,12
1763470592.6016405,3,-4,-5,-12,30,10,-9,-6
1763470592.6181467,-3,2,12,4,-8,-40,-10,-63
1763470592.6257563,-2,-9,-10,-3,55,15,0,-26
1763470592.6483245,2,-3,1,7,-25,-31,6,45
1763470592.6616325,12,5,-4,-22,16,-15,7,30
1763470592.676579,-21,-6,-4,12,-1,-1,-4,-16
1763470592.6861587,-5,-11,-18,-4,-6,1,-15,19
1763470592.7083719,-8,-4,0,-20,-21,16,4,-38
1763470592.7215536,6,0,-1,-1,-30,-18,-11,-32
1763470592.7307074,19,-2,-13,-35,10,16,20,64
1763470592.7453814,-2,-2,0,-18,-42,38,7,11
1763470592.7679095,-11,-5,-6,-9,3,-16,3,-19
1763470592.790417,-3,-4,5,36,2,16,4,-21
1763470592.8042195,8,9,27,63,25,5,-9,2
1763470592.8130138,-17,-4,3,17,-21,28,-2,7
1763470592.8279734,-8,-7,-11,-15,-4,-9,6,-24
1763470592.8504424,0,4,2,-4,-6,23,-13,-1
1763470592.865442,6,-1,-4,1,-8,-29,4,31
1763470592.8879662,-1,-8,-9,-4,15,-27,1,7
1763470592.9103754,2,9,5,-24,13,40,53,96
1763470592.9247513,-3,0,0,-16,-38,-27,-11,-19
1763470592.9314263,9,4,-18,-77,1,-2,-2,-24
1763470592.9478734,-1,-1,-2,-26,18,-3,-5,47
1763470592.9704554,-7,-1,3,25,14,28,13,-16
1763470592.9849832,3,-3,-3,-13,-21,0,3,-21
1763470592.9916992,-4,0,13,27,6,5,5,-79
1763470593.0081265,17,3,3,-1,-8,-3,46,-4
1763470593.030932,4,7,1,15,-14,-25,-24,-8
1763470593.0447733,5,-1,5,-14,1,-8,8,-11
1763470593.0532725,2,-1,-3,-24,2,5,-15,22
1763470593.0682025,-10,0,-12,6,0,7,-20,10
1763470593.098212,-4,-5,9,13,5,-11,-16,35
1763470593.1048825,-15,-5,-4,-3,8,11,-3,-37
1763470593.111621,-9,-1,9,23,-20,-15,15,-23
1763470593.1281362,6,4,0,-26,-16,0,12,-28
1763470593.150558,-3,-6,1,-5,-31,13,-14,-5
1763470593.164815,9,1,-8,-34,1,-8,4,61
1763470593.1717641,10,6,6,23,35,48,-5,72
1763470593.1879308,5,0,-6,-23,-2,-14,-32,-29
1763470593.2106075,-1,-2,-2,2,18,20,13,-7
1763470593.2330897,-15,-7,-25,-21,18,-12,-28,-55
1763470593.247894,2,2,19,57,9,25,-7,-24
1763470593.2704828,-1,-7,-9,-52,-20,-27,-6,-9
1763470593.2841368,6,2,10,10,6,5,-1,10
1763470593.2932568,0,-2,-2,14,-10,27,19,-25
1763470593.3155682,-7,-3,-6,28,15,20,-5,-10
1763470593.330561,-8,-1,7,4,3,17,4,-8
1763470593.3442647,2,0,0,-1,36,-6,-4,2
1763470593.3536608,2,4,16,-1,-22,30,8,-15
1763470593.3683696,0,-1,-8,-4,7,-23,39,3
1763470593.3905783,1,-1,-2,9,-10,-14,2,-4
1763470593.40445,11,1,-12,-2,-27,41,-34,16
1763470593.4131618,4,0,0,24,4,-14,-11,-5
1763470593.4280584,-21,-7,1,-10,-30,-44,2,-22
1763470593.4503539,0,1,0,-1,-39,-21,-1,49
1763470593.464362,1,-2,-5,-6,-10,30,39,-43
1763470593.473184,0,-8,-14,-43,25,-16,-5,-29
1763470593.4878588,0,6,12,19,13,17,-19,45
1763470593.510423,-10,-4,-16,-7,-2,-11,-14,-59
1763470593.524094,9,0,8,-6,-1,-18,4,12
1763470593.5329194,4,0,1,17,-10,7,-2,29
1763470593.5480714,1,-1,-5,-13,13,34,4,-1
1763470593.5707254,-7,0,8,16,-24,-35,-7,-3
1763470593.5841787,-6,-3,-2,5,27,-2,-2,21
1763470593.593068,-15,-7,-10,-22,-9,12,-16,-29
1763470593.6080556,1,1,-5,-11,17,-12,9,47
1763470593.6305661,-11,-2,0,-7,-16,5,-1,-18
1763470593.6443353,8,-2,-1,8,3,10,-2,2
1763470593.6531436,2,-8,-6,-5,8,29,-10,-12
1763470593.6678283,-17,-6,0,4,13,-7,-7,-11
1763470593.690465,-3,-5,-10,-3,-50,-18,-24,-29
1763470593.7129087,-12,23,17,28,-10,6,22,-14
1763470593.727202,11,-2,-11,-5,-51,10,-5,-1
1763470593.7416587,3,13,3,-42,-29,25,34,7
1763470593.750482,15,-4,10,-5,54,-3,10,27
1763470593.7729452,1,-5,1,20,32,-1,-8,-2
1763470593.7872176,-5,-26,-12,55,103,-1,9,-14
1763470593.7940826,5,8,1,9,-36,-10,-3,-1
1763470593.8104398,3,7,12,27,-1,-6,-1,1
1763470593.8406136,2,0,1,-41,-40,6,-3,-3
1763470593.8472793,3,-2,-11,-26,-16,1,-8,-5
1763470593.854084,2,-8,1,-15,-11,-4,-1,3
1763470593.8703787,3,9,2,0,-26,-3,-2,0
1763470593.8931098,1,1,1,-27,-18,0,1,0
1763470593.9079401,-5,-9,-8,-21,-9,-5,-3,-3
1763470593.9158616,3,3,-9,-4,12,-3,0,2
1763470593.9313195,-2,8,-4,12,2,1,0,-1
1763470593.9529426,-3,2,-10,-9,6,1,-3,-2
1763470593.9666522,3,-4,11,0,-5,-5,1,1
1763470593.9756541,-5,-11,1,8,22,3,0,0
1763470593.9905262,0,7,9,-5,-14,-1,-1,2
1763470594.013144,-1,-14,-25,-19,5,-1,0,0
1763470594.0266185,-2,-5,1,3,11,-2,-3,-2
1763470594.035633,-3,-14,4,-12,-2,-2,-3,-2
1763470594.0504115,-1,-5,-1,3,-3,0,-1,-1
1763470594.0729969,2,1,-2,-1,4,-2,-1,-1
1763470594.0866468,5,-1,7,9,0,2,0,-1
1763470594.0955758,2,5,8,-2,-3,0,0,0
1763470594.1104908,-1,-1,0,-1,1,1,0,-1
1763470594.1328986,-5,-4,5,44,61,0,0,-1
1763470594.1556866,-3,-3,-7,-23,-28,-11,-1,-3
1763470594.170721,-1,1,2,-4,-8,2,-1,1
1763470594.192924,-4,2,0,2,-2,1,0,-1
1763470594.2069974,1,-1,-1,-6,-6,0,-3,0
1763470594.2155473,-1,0,-7,1,4,0,-1,-1
1763470594.2307248,-1,0,1,-14,-12,1,-1,-2
1763470594.253119,-1,1,0,-3,0,2,0,1
1763470594.2665784,-2,0,-4,0,-4,-3,-2,-1
1763470594.275491,-2,1,1,2,0,0,-1,-1
1763470594.2904937,1,-3,-3,-1,-5,0,-1,1
1763470594.3130631,2,0,-6,-4,-4,-1,0,-2
1763470594.3265362,-1,1,-1,-2,-4,-1,0,-2
1763470594.335643,1,1,0,0,2,1,0,0
1763470594.349948,-1,-3,1,0,-1,1,1,0
1763470594.3565185,-1,-2,0,-3,-4,0,0,0
1763470594.372914,0,-1,-2,-3,0,-2,-2,-2
1763470594.386663,-2,-3,0,-4,-2,-2,-2,-1
1763470594.3955998,-1,-1,-3,-2,0,-2,-2,-2
1763470594.410322,-2,-2,2,1,-3,-1,-1,-1
1763470594.4340389,1,0,4,-1,-1,1,-1,-1
1763470594.447318,-2,2,-1,2,2,0,-2,0
1763470594.455591,-2,-4,-5,-3,-1,0,-2,-3
1763470594.4704041,-1,-3,-3,-3,-2,-2,-1,-1
1763470594.4930277,-1,-1,-3,0,-2,-1,-1,0
1763470594.5065417,-3,0,-2,-2,-1,-2,1,-2
1763470594.515676,-1,-2,-1,-3,-2,0,-1,0
1763470594.5298817,-3,-2,-1,-2,-2,1,-1,-1
1763470594.5367196,-2,0,-2,-1,-1,0,-2,0
1763470594.553183,-1,-2,0,-3,0,-2,0,0
1763470594.56665,0,0,-1,0,-1,-2,0,-1
1763470594.575482,0,0,-1,0,-1,-1,0,-2
1763470594.5905123,1,-1,1,-1,3,4,1,-1
1763470594.6129978,0,-3,-3,-2,-5,-3,-2,0
1763470594.635385,-2,-2,-4,0,-1,-2,-2,0
1763470594.650576,-2,1,0,0,0,-1,-2,0
1763470594.6729057,0,-2,-1,-1,0,-3,0,-2
1763470594.6966243,0,-2,0,-3,-2,-1,-1,0
1763470594.7113116,-1,0,-1,0,-2,-2,-1,-1
1763470594.7332354,-1,0,-1,-7,-1,-1,-1,-1
1763470594.7628706,-1,-1,-1,3,-2,-1,-1,0
1763470594.769733,-2,1,2,0,-3,-1,-2,-2
1763470594.7766094,2,1,0,1,1,-1,-1,-1
1763470594.792998,0,-2,-4,-1,-3,1,-1,-1
1763470594.8153396,-1,-1,-3,-3,-2,-1,1,-2
1763470594.8297217,-1,-1,1,2,0,1,-1,-1
1763470594.836617,-3,-2,1,-2,-2,0,0,-1
1763470594.852986,-2,-1,-1,-1,0,-1,-1,-1
1763470594.8755481,0,-1,-3,-18,-2,0,-1,-1
1763470594.8899064,-1,-2,-2,7,2,-10,-2,-3
1763470594.8966644,-1,-2,-3,-2,0,7,-1,-2
1763470594.9131167,-1,-1,0,-3,1,1,-1,0
1763470594.9357245,0,-3,-1,2,-1,-1,-1,-1
1763470594.9497225,-1,1,-1,3,-1,0,-1,0
1763470594.9566033,-1,-1,-1,-7,-2,-2,-2,-1
1763470594.9731102,0,-2,-1,2,0,0,-1,0
1763470594.9954717,-1,-1,1,3,0,0,0,0
1763470595.0098424,-2,-2,-2,-3,-1,0,-1,0
1763470595.016541,-1,-1,-1,-1,-2,0,-1,0
1763470595.0331028,-1,0,0,2,0,0,-2,-2
1763470595.0555823,-1,-3,-3,-1,-3,-1,-1,-1
1763470595.070024,-1,0,-2,0,-1,0,0,0
1763470595.076685,-1,-1,-2,-1,-1,-4,0,-2
1763470595.0932488,0,1,-1,-3,0,-1,-2,-1
1763470595.115747,-2,0,0,-2,-2,0,-2,-3
1763470595.129531,0,0,0,-1,-1,-2,-1,-1
1763470595.1381388,0,1,0,-1,0,-1,-1,0
1763470595.1531599,-1,-1,1,0,0,-2,-1,-1
1763470595.1757946,0,-2,-2,-1,-1,0,-2,0
1763470595.1895447,-1,-3,-1,-1,-2,0,0,0
1763470595.1985972,-2,0,0,-2,-1,-1,-2,-2
1763470595.2131119,0,-1,-2,-4,-1,-1,0,-2
1763470595.2354362,-1,-2,0,0,1,-1,-2,0
1763470595.2494245,-1,-1,-1,-1,-2,-1,0,-2
1763470595.2584238,-1,0,-1,-1,2,0,1,1
1763470595.2729414,-2,-1,-3,-1,0,-1,-2,1
1763470595.2956522,-2,0,0,-1,-1,1,-1,0
1763470595.3093517,-2,-1,0,0,0,-4,1,-1
1763470595.3182132,0,0,1,-1,-2,-1,-1,-2
1763470595.3328607,-3,-1,0,0,-1,-1,-1,0
1763470595.3629289,0,0,0,0,1,0,-2,-1
1763470595.3689864,-1,-2,-3,0,-1,0,-1,-2
1763470595.3780208,0,-1,0,0,-1,0,1,-1
1763470595.3928988,-1,-1,0,0,-1,0,0,1
1763470595.415847,-1,-1,0,-1,-1,-1,-2,-2
1763470595.42969,-1,-1,-2,-2,-3,-2,-1,-2
1763470595.4381716,-1,0,-2,0,0,1,-1,1
1763470595.4531996,-1,-3,-1,0,-1,-3,0,-1
1763470595.4754295,0,0,-2,-1,-1,0,-2,-1
1763470595.4891572,0,-1,-2,-1,-2,-2,0,-1
1763470595.4980488,-3,0,-1,-1,0,-1,-1,-1
1763470595.5129964,0,0,-1,-2,-2,-2,-1,0
1763470595.5357718,-1,-3,-2,-1,0,1,-2,-1
1763470595.5491135,-2,0,1,0,-1,0,0,-1
1763470595.5583954,-1,-3,-3,-1,0,-1,-1,-2
1763470595.573199,-1,-2,-2,-1,-1,-1,-1,-1
1763470595.5954409,-1,1,-1,-2,1,-1,1,-1
1763470595.61785,-2,-3,-1,-1,1,-1,-1,-1
1763470595.6321862,0,1,-1,0,0,-1,-2,-2
1763470595.6389947,-1,-1,-2,-2,0,-2,1,1
1763470595.6554117,0,-1,-1,0,-2,-1,0,-1
1763470595.6854131,-1,-1,0,0,-1,-2,-1,0
1763470595.6928694,0,-2,-1,-1,-2,-3,0,-3
1763470595.7155461,-1,0,-2,-2,-1,0,-1,-1
1763470595.7380803,-1,-2,0,-2,-1,-1,-1,0
1763470595.7524347,0,-2,-2,-1,-1,-1,-1,0
1763470595.7592604,-1,0,-1,-1,-1,1,-1,-1
1763470595.7755291,0,-1,-2,-1,-2,-1,-1,-3
1763470595.7979114,-3,-1,-1,0,-1,-1,-1,-1
1763470595.8123121,-1,0,-1,0,0,-1,1,-2
1763470595.8196368,-2,-1,0,-1,-2,-1,-1,-1
1763470595.8354857,-1,-1,-1,-2,0,0,0,0
1763470595.8579128,-3,-1,-2,1,0,-1,-2,0
1763470595.872454,-1,-2,0,-2,-2,-1,-1,-2
1763470595.87905,1,-3,-2,-1,0,-1,-2,-2
1763470595.8955998,-2,-1,-2,-1,0,-1,0,-1
1763470595.9183867,-1,-1,0,-3,-1,-1,0,0
1763470595.9322946,0,0,0,1,-2,-1,-2,-1
1763470595.9390771,-1,0,-3,-3,-1,-1,-2,-1
1763470595.955384,-1,-2,-2,-1,-2,-2,-1,0
1763470595.978059,-1,1,-4,-3,0,0,0,-1
1763470595.992496,0,-3,-2,0,-1,-1,-2,-2
1763470595.9991179,-1,-2,0,1,1,-1,-3,0
1763470596.0153925,-1,-2,-1,-1,0,-2,0,-1
1763470596.0389416,0,-1,-2,-2,-1,-2,-1,-1
1763470596.051748,-1,-1,1,0,-2,1,1,0
1763470596.0607822,-1,0,-1,-1,-3,-2,-2,-1
1763470596.0754995,0,0,1,0,-2,0,-1,-1
1763470596.1055434,1,-1,-2,-1,-3,0,-3,-2
1763470596.1114633,-1,-1,1,-1,-1,-1,-1,0
1763470596.1204934,0,-2,-6,-3,0,0,-2,-1
1763470596.1354835,-2,0,0,-2,2,-1,-1,-1
1763470596.158115,-1,0,-3,-1,-1,1,-2,-2
1763470596.1716568,-1,-1,-4,-3,-1,0,1,-1
1763470596.1805687,0,-1,-1,-1,-1,0,1,-1
1763470596.1954136,0,-1,0,-1,-1,-2,-1,-2
1763470596.2181516,-1,-2,-1,0,1,1,0,-2
1763470596.2317798,-1,0,-2,-3,-1,-2,-1,-1
1763470596.240574,0,-1,0,-1,-2,1,1,-2
1763470596.255452,-3,0,-1,0,1,0,0,1
1763470596.285532,0,0,-1,1,0,-1,-3,0
1763470596.29167,-1,0,0,0,-3,-1,0,-2
1763470596.3005095,0,-1,-1,-1,0,-1,-1,-2
1763470596.3155022,-1,-2,-2,0,-1,-2,0,0
1763470596.3378825,-2,-3,-2,-2,-1,0,0,-1
1763470596.3515344,-2,-1,0,2,-1,-2,-1,-2
1763470596.3605332,0,0,0,-2,-2,-1,-2,0
1763470596.375445,0,-1,1,0,0,0,-1,-1
1763470596.3982086,0,-1,-2,-1,-2,-1,0,1
1763470596.411799,1,0,-1,-1,-1,-1,-1,0
1763470596.428139,-2,-2,0,1,-1,1,-1,0
1763470596.4354627,-1,-1,0,-3,0,0,-2,0
1763470596.4583626,0,0,-1,-1,0,0,0,-1
1763470596.4719627,-2,-1,-3,0,-2,0,-1,0
1763470596.481156,-2,-1,-3,0,0,-1,0,-1
1763470596.4955108,0,0,-1,-1,-2,-1,-1,-1
1763470596.5179768,-1,-2,-1,-4,1,-2,-1,-1
1763470596.5403802,-1,0,0,1,-2,0,-2,-2
1763470596.5557194,-1,-2,0,-1,-1,-1,0,0
1763470596.57813,-1,-2,-2,-1,-1,-1,-2,-2
1763470596.6083364,0,-1,-4,-1,-2,0,-1,-2
1763470596.6156914,0,-2,0,-1,-1,-3,-1,-1
1763470596.6385076,-2,0,0,2,0,0,0,0
1763470596.6616702,-1,-2,0,0,0,-1,0,-2
1763470596.6749406,0,0,0,-2,0,0,0,0
1763470596.6817393,1,-1,-3,-2,0,0,0,1
1763470596.6984863,0,-2,-4,-2,-2,-1,1,-1
1763470596.7205014,-1,-1,-2,-1,-2,-2,-1,-1
1763470596.734744,-2,-3,-2,-2,1,-2,-1,0
1763470596.7491407,-2,-1,1,-1,0,-2,-2,-1
1763470596.757994,-1,0,1,0,-1,0,-2,1
1763470596.7803907,-1,-1,-1,-3,-2,-3,-2,0
1763470596.7947223,-1,0,0,1,0,0,-1,-1
1763470596.8015234,-2,-1,0,-1,-2,-1,-1,0
1763470596.817888,0,-1,1,-1,-1,-2,-2,-2
1763470596.8405573,0,0,-1,-1,-2,-1,0,-1
1763470596.8549693,-1,0,-1,-2,-2,-3,-1,-2
1763470596.8615286,0,-1,1,-1,-1,-1,-3,0
1763470596.8779187,0,-2,-1,-2,0,-1,-3,0
1763470596.9004676,-1,0,1,-2,-1,-1,0,1
1763470596.9140809,0,0,-2,1,0,-2,0,-1
1763470596.923097,-1,-2,-1,0,-1,2,-1,-2
1763470596.9380612,-3,-2,0,-1,-1,1,0,-2
1763470596.9604018,-1,-1,1,-2,1,0,-1,-2
1763470596.9740984,-1,-2,-1,0,-1,-1,-2,-1
1763470596.983208,0,-2,0,-1,-2,-2,1,-1
1763470596.998081,-1,-2,-3,-1,-2,0,-1,-1
1763470597.019648,-1,-4,-2,-2,-2,0,3,1
1763470597.0281107,1,-1,-2,-1,-1,-3,-1,-2
1763470597.0341432,-2,-2,0,-1,-1,-1,-2,-1
1763470597.0429678,-1,-1,0,0,0,0,0,0
1763470597.058,-2,-2,-4,-3,1,-1,-2,-3
1763470597.0804813,-1,0,1,-1,-1,-1,0,-1
1763470597.1029844,0,1,-3,-1,-1,-1,-2,1
1763470597.118016,-2,-1,-1,1,-2,0,-2,1
1763470597.1406643,-2,-2,-1,-2,-2,-2,1,-1
1763470597.1542635,-1,-2,0,0,-3,-1,0,0
1763470597.1633053,-1,-2,-3,-4,0,0,-3,0
1763470597.1789637,-1,-1,-1,-1,0,1,-1,-1
1763470597.2007353,0,0,1,0,-1,-1,-1,0
1763470597.214412,2,-1,0,-2,-1,0,-1,-1
1763470597.2231958,0,-2,-2,1,0,-2,1,-1
1763470597.2380226,1,0,-1,2,-1,-2,-2,0
1763470597.2603574,-2,0,-1,-1,0,-1,-2,-2
1763470597.2741709,-1,-1,-3,-3,-2,-2,-1,-1
1763470597.283114,-1,0,-1,-1,0,-1,0,-1
1763470597.2979014,-1,-1,-1,1,0,0,-3,0
1763470597.320479,-1,0,0,-1,0,0,1,-2
1763470597.3342474,-3,-3,-2,0,-1,0,1,-1
1763470597.3430893,1,10,13,7,-4,0,2,2
1763470597.3581805,-5,-7,-14,-8,4,2,-1,-3
1763470597.380472,5,20,18,73,48,8,2,0
1763470597.3940618,-8,-20,-29,-32,-27,-19,-5,-3
1763470597.4030967,2,11,8,-12,-35,-9,1,-2
1763470597.4172437,5,20,28,-3,7,1,2,0
1763470597.4241629,3,-16,-24,-12,-12,-11,-1,0
1763470597.440671,12,2,1,-12,-43,-34,-6,-2
1763470597.4542096,-4,-20,-8,-19,-23,7,14,-1
1763470597.4632227,1,5,4,19,68,27,8,-4
1763470597.4773529,-5,-3,0,-16,-19,21,-9,-5
1763470597.4841642,-7,-6,-6,-10,-26,-5,-2,-3
1763470597.5005522,-5,0,-2,-2,10,5,-2,-1
1763470597.5231934,-5,-4,-1,-11,-42,-5,-1,1
1763470597.5373874,-3,1,0,15,48,21,-2,5
1763470597.5440948,-5,-3,-2,-5,-3,51,4,3
1763470597.5596569,0,-2,-3,9,13,5,56,-9
1763470597.5680926,1,0,-2,-9,-26,-30,-1,2
1763470597.583147,-1,-1,-1,-8,13,-7,-11,-1
1763470597.5975986,12,0,-1,-5,-2,-12,-12,26
1763470597.6041067,0,1,0,1,16,42,18,1
1763470597.620674,-1,-1,-2,3,2,-24,-11,-4
1763470597.643025,-6,-3,-1,3,37,-22,-22,-9
1763470597.6573858,7,4,3,0,0,1,7,14
1763470597.6649735,0,-2,-2,0,-15,0,13,1
1763470597.6804843,-12,-8,-8,-8,-7,9,-10,-18
1763470597.710515,1,4,7,2,-21,0,-4,-3
1763470597.7254536,1,13,17,2,-10,21,11,-53
1763470597.7554994,13,-5,-7,1,23,57,13,90
1763470597.762869,-27,-14,-8,-12,-14,-46,-26,-72
1763470597.7692668,13,8,26,36,-31,5,-13,-29
1763470597.776736,-6,-2,-8,-24,-3,-29,-60,22
1763470597.785673,-19,-7,-20,-49,-24,18,-49,-34
1763470597.8014085,3,-3,-9,10,3,-60,16,-25
1763470597.8225484,-9,-14,-14,-1,-25,13,-29,-10
1763470597.844975,4,17,33,-5,-16,-5,6,-22
1763470597.8597803,0,0,9,-9,-41,-49,23,11
1763470597.8822544,12,7,22,101,-9,23,49,-36
1763470597.904944,8,6,10,-32,30,42,35,21
1763470597.9198048,-20,21,48,43,17,40,-35,19
1763470597.9508362,16,-5,42,-6,-6,33,38,106
1763470597.965009,65,28,-73,-94,-49,34,45,38
1763470597.9817002,-42,118,6,-26,-21,-24,-26,-90
1763470598.0024576,-24,-128,-6,23,53,-52,-77,-99
1763470598.0248778,-20,-28,14,-32,-2,-38,-39,-43
1763470598.0398426,33,-1,41,33,18,43,96,87
1763470598.0625343,-67,46,-128,-24,-34,-34,-47,-76
1763470598.0934014,46,-46,-46,-47,13,61,-26,17
1763470598.1001074,-17,-7,74,19,4,13,3,-108
1763470598.1223073,18,24,-20,-28,3,-39,-17,52
1763470598.1449845,-3,-22,9,-28,2,-42,6,15
1763470598.168155,-9,-13,-6,-9,9,46,38,46
1763470598.1823177,-11,11,7,30,35,84,14,20
1763470598.2129436,-3,14,-17,12,-13,-71,-47,-50
1763470598.2199638,0,9,4,32,-18,16,15,-18
1763470598.242423,7,-6,-24,-35,-11,-18,-8,25
1763470598.2648354,-14,0,-22,4,20,-42,-45,-33
1763470598.2800174,15,4,28,32,-3,-14,0,-24
1763470598.3023329,-6,-21,-9,30,-69,-69,-6,-17
1763470598.3247728,-10,8,-26,-22,-6,10,51,106
1763470598.3397012,-1,-7,32,33,-21,-41,-16,7
1763470598.3706088,-22,20,-8,-48,-16,-41,-4,38
1763470598.3849359,-12,-46,-22,4,73,37,64,11
1763470598.3999388,31,13,77,75,-36,-15,-27,55
1763470598.423974,20,6,2,-17,-85,34,-7,-50
1763470598.444925,-3,-9,13,44,6,65,-38,2
1763470598.4614363,42,-3,-37,-43,5,82,-47,73
1763470598.4905493,-17,64,-45,-128,-11,-69,13,-52
1763470598.5047588,10,-14,-59,-88,22,62,-24,-49
1763470598.5200288,-13,-37,-10,65,54,27,-49,-74
1763470598.5439239,-19,-31,-6,25,24,-24,-2,12
1763470598.56479,-1,-8,40,12,-35,-59,58,19
1763470598.5801692,-6,29,51,34,28,60,11,5
1763470598.587334,21,24,-46,-71,-44,-68,-19,-24
1763470598.602313,-17,34,49,34,7,-37,-18,-40
1763470598.6245384,10,-30,2,-5,-8,60,19,-38
1763470598.63242,-29,-6,5,13,25,19,0,-10
1763470598.640089,-1,-37,-26,28,0,70,55,63
1763470598.662482,8,27,-9,-74,3,4,-1,21
1763470598.6849437,22,-45,25,54,53,14,6,54
1763470598.6998477,-23,-16,-20,-38,52,-51,17,-52
1763470598.7228045,-17,-9,18,26,-82,-25,20,-45
1763470598.7449288,23,-21,25,29,-2,8,0,23
1763470598.75983,34,53,17,63,-13,-18,38,74
1763470598.7822814,4,-38,-23,7,-7,9,6,-36
1763470598.8137684,-19,14,9,-1,22,-13,-36,33
1763470598.821439,-17,17,-25,21,51,26,-58,-80
1763470598.842311,-11,7,-11,-42,-5,-25,-20,-42
1763470598.8647711,-20,13,-6,30,-12,-21,-28,-54
1763470598.8797388,17,-1,-6,-69,-30,-16,57,40
1763470598.9128087,7,19,-15,4,11,15,1,-10
1763470598.9252896,1,-17,-39,-57,-27,-11,-23,-55
1763470598.9397762,8,-3,56,32,10,57,24,77
1763470598.9627554,5,-29,8,-45,4,-56,-23,10
1763470598.984732,-6,-7,2,16,-9,18,50,12
1763470599.0012672,-20,-16,10,106,12,-23,-40,-64
1763470599.0225847,6,42,5,29,27,43,77,-11
1763470599.0450528,-8,6,3,-47,-42,-58,-29,-73
1763470599.0609493,2,-25,-48,7,28,21,0,90
1763470599.0675979,11,10,-6,-12,7,8,15,-6
1763470599.0825734,8,39,8,28,1,-11,-35,-6
1763470599.1047451,0,10,0,-66,-53,-12,-26,8
1763470599.1192546,15,-16,-10,-20,30,95,16,9
1763470599.1274555,20,-24,8,5,-9,13,43,-3
1763470599.1423159,-17,-35,-71,-90,8,0,-48,-14
1763470599.1649525,-7,6,23,31,16,-2,69,-11
1763470599.179067,-24,-5,21,42,-12,-70,-30,-29
1763470599.1875355,-6,-3,-30,-48,-22,22,16,-35
1763470599.2024243,-5,-10,-40,-78,3,7,39,16
1763470599.224764,7,-2,2,75,-4,-56,-1,-7
1763470599.2398062,-5,7,20,-1,0,-26,-58,-80
1763470599.247934,-4,9,14,-14,24,-1,-29,35
1763470599.2625346,-6,-4,13,9,-12,-59,-27,-65
1763470599.2849183,10,43,18,0,-7,-7,15,81
1763470599.2990973,-1,-8,-5,-20,15,-21,-50,-10
1763470599.3076007,13,27,-4,33,-21,-43,-34,-41
1763470599.322441,22,-23,3,-1,-12,-25,-7,13
1763470599.344863,-3,21,4,-1,-16,39,43,-16
1763470599.3679476,2,1,-3,-51,-13,22,21,45
1763470599.3824835,10,2,14,11,-1,29,7,1
1763470599.404982,1,9,-13,-29,-25,42,23,63
1763470599.4357514,-9,-23,10,44,6,26,20,8
1763470599.4426115,-16,-6,29,18,-16,-42,-37,-47
1763470599.4652047,3,-7,-27,61,20,32,-15,14
1763470599.4882047,13,-5,-17,7,12,5,-8,22
1763470599.5024629,-26,4,7,47,21,-4,-18,-43
1763470599.5252287,30,-6,10,-18,-24,-13,44,51
1763470599.5556595,-4,-5,9,-10,-2,-11,22,-1
1763470599.562446,-9,-11,-24,-34,12,9,-32,-50
1763470599.584845,1,5,0,-13,11,-26,3,-1
1763470599.6080496,-2,12,17,-6,-9,-47,47,96
1763470599.6228716,-2,-5,-22,25,-25,9,-40,-17
1763470599.6448722,-10,4,-8,-35,14,3,22,9
1763470599.6679635,-8,-7,-30,-29,7,6,11,-44
1763470599.682382,-11,-12,11,-13,5,-16,-45,-13
1763470599.713175,9,5,-21,-36,9,22,27,4
1763470599.7273345,12,7,11,-15,42,16,29,-29
1763470599.74264,3,1,25,15,-31,-11,-32,-31
1763470599.7647707,2,-4,-11,19,-35,17,-8,39
1763470599.7881355,6,10,26,-6,17,41,31,-19
1763470599.802371,-13,-6,2,61,7,-29,-9,-21
1763470599.8248315,6,1,2,6,-25,9,-27,10
1763470599.848171,-29,0,26,-3,-37,-43,-11,10
1763470599.8624265,4,4,-10,5,0,10,6,59
1763470599.8930671,3,3,-5,-26,30,45,22,-23
1763470599.907918,21,-8,-21,-31,-9,-31,-9,12
1763470599.9308245,-5,-5,4,34,7,-37,2,36
1763470599.9458394,6,-2,5,26,-4,-6,-14,-24
1763470599.9681,-10,-10,-14,-21,6,-24,-25,-42
1763470599.9904978,-15,-7,9,-7,2,63,37,19
1763470600.0049746,2,5,-29,-11,15,-16,-35,-7
1763470600.0270128,4,0,-12,-25,3,35,-8,-23
1763470600.0347404,-12,-1,-12,-24,-8,13,43,-33
1763470600.041795,13,1,-11,-28,34,22,10,66
1763470600.0497873,-8,5,10,22,8,-16,-11,64
1763470600.0647874,-13,-7,-3,14,3,26,-2,-80
1763470600.0872617,6,3,-9,-18,-7,14,48,22
1763470600.1017678,33,11,8,13,-22,-9,11,-22
1763470600.1098726,-2,-7,-3,-47,-27,-46,0,-11
1763470600.1252427,-15,2,0,12,7,4,-38,-28
1763470600.1555166,-17,7,6,16,-18,-56,-23,-23
1763470600.161535,-21,-14,0,-5,18,-5,4,-42
1763470600.169812,9,-1,-14,13,16,40,19,-21
1763470600.1848361,-9,3,0,-24,-34,-2,28,13
1763470600.2087767,-1,-5,-21,-31,0,-26,-25,-33
1763470600.2215757,10,3,20,36,11,22,-6,38
1763470600.2298698,-28,-3,-6,-14,33,14,-24,-54
1763470600.2530706,16,-3,4,12,20,13,-13,-42
1763470600.2674038,-16,-8,-7,13,6,-1,-12,-27
1763470600.2816737,11,1,-12,-42,-21,-5,0,29
1763470600.2973611,7,15,0,-14,4,7,14,53
1763470600.304749,-6,-3,-10,-15,13,-9,-12,46
1763470600.3273213,-6,-5,13,-2,-47,-28,-9,-18
1763470600.3505442,1,-2,5,41,2,-12,-9,7
1763470600.364934,-21,-3,-23,16,14,11,-19,-36
1763470600.3873055,-10,-8,-18,4,-15,-23,-5,-35
1763470600.4104884,-4,-1,12,5,-1,-34,8,-9
1763470600.4330137,21,5,14,-7,-36,-5,-15,78
1763470600.4473894,-2,0,3,-13,-26,-21,39,30
1763470600.4705846,2,-1,-20,-26,14,3,3,8
1763470600.500713,-8,-4,12,0,6,1,-15,-70
1763470600.5074914,-9,-18,-25,-17,11,37,50,-26
1763470600.530627,-3,5,13,25,17,23,-17,-11
1763470600.5448804,8,3,5,15,2,-11,-2,20
1763470600.567345,-13,-8,-7,7,2,9,-22,-18
1763470600.5906513,3,0,-3,3,-7,-26,-18,-8
1763470600.6048963,-7,0,7,-12,29,20,2,-11
1763470600.627316,-4,-1,-13,-20,11,-22,-16,-12
1763470600.650492,10,8,13,16,-11,-8,9,-11
1763470600.6647913,-1,-4,3,4,-11,44,26,4
1763470600.6873422,-4,9,11,35,61,31,25,-30
1763470600.7105253,-10,-6,-11,-28,2,-17,-29,-17
1763470600.7248216,3,-6,-11,-65,-18,-9,0,52
1763470600.7635517,2,11,0,5,43,14,23,24
1763470600.7705338,-4,-1,-7,-23,-72,-9,1,5
1763470600.7848063,-7,-10,-11,-29,5,-20,-13,-22
1763470600.807384,12,-3,-25,10,-29,-15,-4,94
1763470600.830652,5,6,29,24,-9,18,-18,-33
1763470600.844783,-2,5,15,11,-23,-7,12,-34
1763470600.8673263,6,-1,-8,-10,-10,-18,2,61
1763470600.8980458,-3,-6,-4,7,-8,-15,-22,15
1763470600.9129817,5,3,12,3,22,17,7,-32
1763470600.9274302,-9,-16,-17,-11,4,2,3,-16
1763470600.9507444,9,0,9,25,-41,-18,-17,49
1763470600.9642384,-4,-3,-3,-14,20,9,16,-22
1763470600.972346,-27,-1,4,36,2,18,3,-27
1763470600.9877825,0,-1,-1,8,-12,-21,-18,18
1763470601.0107992,-2,-2,4,13,32,12,12,-24
1763470601.0242035,-9,3,2,22,26,-1,-40,-13
1763470601.0322986,-6,-6,-20,8,1,-2,20,26
1763470601.047304,6,9,8,-6,-3,-20,37,67
1763470601.0696974,-12,-1,-13,-9,11,-17,-54,-51
1763470601.0775476,-3,-5,6,17,-38,10,8,1
1763470601.0842624,10,-13,3,38,-9,16,32,-3
1763470601.0925596,-2,-5,-9,3,6,27,29,69
1763470601.1073084,-12,-2,-16,-32,-62,-37,-26,-47
1763470601.1306946,12,8,7,-22,1,61,51,70
1763470601.1442673,3,2,12,13,22,29,-5,-30
1763470601.1524944,0,0,-4,1,22,-33,-7,-22
1763470601.167399,-1,3,3,-26,-12,-2,-3,9
1763470601.1909435,4,1,8,-16,9,-10,-23,-24
1763470601.2041745,0,-14,-33,-37,-3,-5,12,15
1763470601.2124286,-4,6,8,20,-20,28,-12,-4
1763470601.227403,-16,-3,-2,5,4,-29,5,-62
1763470601.2506368,-5,7,-6,26,-24,-8,-8,-11
1763470601.2740324,3,2,16,32,34,-11,-4,1
1763470601.2874217,9,0,12,25,35,13,6,71
1763470601.31084,-5,-2,-18,-50,-17,7,-8,20
1763470601.3330386,0,3,27,20,-41,-18,0,-49
1763470601.3476245,-7,1,12,24,1,6,-1,-26
1763470601.3780434,-4,-9,-16,-4,4,11,-7,-16
1763470601.3931015,3,4,6,10,-22,26,48,54
1763470601.4073622,3,-7,-40,-42,28,32,-13,-12
1763470601.4306805,14,0,-18,-5,0,-14,16,64
1763470601.453063,-11,-2,7,-10,0,-14,-12,-60
1763470601.4673455,13,2,0,-27,-27,23,31,7
1763470601.4979928,2,0,0,15,22,-5,-17,27
1763470601.5129802,-22,-3,0,-10,-37,-5,-40,-73
1763470601.5273416,1,1,-17,-16,-3,-9,31,-16
1763470601.5504932,-4,-1,3,12,-13,-26,3,9
1763470601.5730882,-15,-9,-2,51,45,-21,-18,-14
1763470601.587438,2,-3,4,-12,-7,-5,7,1
1763470601.6107876,1,0,-11,6,39,26,-20,-17
1763470601.6406918,-4,-10,-34,-35,5,12,-4,56
1763470601.647377,6,8,19,4,21,33,31,70
1763470601.6708086,-12,-3,1,15,5,-22,-11,-9
1763470601.6925228,-10,-7,7,-13,-24,8,4,-9
1763470601.7001896,-7,-10,-17,-26,6,25,-11,-4
1763470601.7077084,2,-3,9,-1,-11,-16,-14,-26
1763470601.7299116,-2,0,8,11,-5,3,-8,-32
1763470601.7531862,12,6,17,47,18,-40,1,6
1763470601.7671206,2,3,5,-2,-26,-41,-19,-11
1763470601.7748463,0,-4,-6,-27,0,-37,-20,3
1763470601.789926,2,-1,-8,-3,-3,48,30,2
1763470601.81266,4,0,-3,-19,-30,20,8,27
1763470601.8355734,-3,1,-6,-20,-4,-38,-4,-16
1763470601.8499231,-9,2,14,26,35,-3,1,-36
1763470601.8745475,3,-7,-15,-1,-7,-4,-26,-23
1763470601.8872879,-10,3,-1,50,-9,-2,-7,38
1763470601.8949158,-10,-6,-6,-43,-12,-7,-24,-51
1763470601.9255342,-1,-3,1,11,12,23,13,27
1763470601.9329972,-9,-1,0,-40,21,18,11,-27
1763470601.9466288,1,-6,-1,-12,-25,-13,8,-5
1763470601.9545636,10,1,14,29,15,31,2,-20
1763470601.9780643,3,-2,2,13,10,14,-8,12
1763470601.9930122,6,1,0,-13,-25,-8,-13,73
1763470602.0066912,1,1,4,38,13,-29,-21,46
1763470602.0148528,5,-2,20,44,-8,1,27,6
1763470602.0302308,3,3,5,-30,-5,28,-38,11
1763470602.053349,5,-6,0,-12,-14,3,3,-34
1763470602.0666904,-4,-3,-13,-14,22,5,35,-33
1763470602.0748515,-15,1,-3,-16,-13,-22,-17,-21
1763470602.089828,15,2,-3,4,14,-9,-8,11
1763470602.1129923,-1,-3,-16,-35,-15,-39,-9,26
1763470602.1267574,-2,4,9,-11,-14,19,-8,-37
1763470602.1348884,1,-2,-9,-40,-12,9,-27,-2
1763470602.1499066,-16,-4,5,-4,3,-17,-8,-32
1763470602.1730857,-9,1,0,-5,-13,-4,19,-21
1763470602.186684,-7,-1,9,26,7,-22,-21,-20
1763470602.1952107,-2,0,-30,-36,27,14,-1,-19
1763470602.209875,3,-2,-18,-50,-34,1,-12,-34
1763470602.2330804,7,5,4,-4,19,19,6,-23
1763470602.255535,-4,-2,-4,11,-11,3,23,62
1763470602.2699459,-1,-1,-5,9,4,40,16,10
1763470602.3007414,23,7,6,-17,3,27,17,2
1763470602.315773,-6,-9,-10,-17,-18,-22,-8,11
1763470602.329861,-8,-4,4,-9,-30,-9,-10,-28
1763470602.3532736,11,3,3,6,16,1,7,-4
1763470602.3757114,-2,-1,6,28,23,-8,-14,-19
1763470602.3901627,7,1,-6,-6,-8,-25,12,59
1763470602.4130104,-11,-2,20,28,-10,-13,-28,-41
1763470602.4356868,-6,2,7,0,-3,11,13,-22
1763470602.4498456,4,-2,15,28,-17,-35,8,4
1763470602.4730792,-15,-3,-14,-11,-7,27,3,39
1763470602.4955502,-12,0,-5,-32,8,-6,11,-32
1763470602.5182042,-7,-1,-18,-6,0,-63,-25,-22
1763470602.5335958,15,-4,-24,-28,-17,-34,-6,59
1763470602.5557992,-8,-5,2,6,17,-49,40,-22
1763470602.5783386,3,-8,-27,22,-3,-5,-10,-17
1763470602.5931597,-1,1,13,13,8,43,-9,-7
1763470602.6156158,3,7,13,5,7,27,-2,26
1763470602.629886,-11,-23,-28,-11,-22,43,12,-12
1763470602.6530533,10,14,24,10,-8,34,13,16
1763470602.6756184,-8,0,6,6,26,20,14,12
1763470602.6899874,-3,-5,-15,-11,-4,-6,10,-3
1763470602.7129624,3,6,9,1,-9,7,-21,-28
1763470602.735476,2,-2,1,1,-9,24,-6,-6
1763470602.749824,-4,-2,-1,-3,-3,-18,-20,-12
1763470602.773084,0,3,2,-3,-19,-3,-9,-9
1763470602.796065,2,-5,-3,6,14,-21,-12,-1
1763470602.8091495,-1,5,-21,-9,-7,-17,22,-12
1763470602.817353,-1,7,11,13,-4,6,0,-6
1763470602.8405495,0,-16,1,-2,25,5,-3,-18
1763470602.8554618,-3,-2,6,-4,19,-1,-19,-2
1763470602.8693168,-7,-5,-25,-10,-14,-2,-3,-1
1763470602.8772857,-3,7,2,3,6,6,-1,2
1763470602.8931093,1,-1,-3,12,22,-12,10,-1
1763470602.9155896,-3,-4,5,-4,-19,-6,-9,-3
1763470602.9296963,1,-2,-13,-10,2,2,-7,-1
1763470602.952919,-7,-12,-1,22,5,3,3,8
1763470602.968379,-2,5,-19,13,8,6,-5,-2
1763470602.9833136,-9,-5,11,0,-6,1,-1,5
1763470602.9894094,0,2,3,-6,-4,0,-4,-3
1763470602.9974642,1,13,1,-8,1,1,-4,-3
1763470603.0128415,0,2,12,2,-1,-3,0,2
1763470603.0430193,4,-1,5,-2,0,2,-1,1
1763470603.0492961,0,1,7,-1,-3,0,0,0
1763470603.0574758,-2,-5,-1,-3,-1,-3,-4,-1
1763470603.07233,2,3,9,3,-4,0,-4,0
1763470603.0958405,-2,2,-7,2,1,-1,-2,-1
1763470603.1180086,1,-6,-8,-4,4,0,-2,0
1763470603.132853,-2,7,3,0,-4,-1,0,-1
1763470603.1555235,1,3,7,0,3,6,0,1
1763470603.1780977,-2,-4,-6,2,4,4,-2,0
1763470603.1922882,-2,-6,-6,-5,0,-7,1,-3
1763470603.2156694,1,0,-3,-1,-4,10,5,0
1763470603.238054,-1,10,12,0,-3,-9,-5,-3
1763470603.2518358,-1,-5,2,-3,-7,-8,-2,-1
1763470603.2609951,-2,2,-4,-6,-5,8,0,-3
1763470603.2756958,-1,-1,3,3,5,-1,0,-1
1763470603.305524,-1,-3,-3,-1,0,2,0,0
1763470603.3120687,0,0,3,2,0,0,0,-1
1763470603.3208344,1,-1,-1,-2,-3,2,-3,0
1763470603.3356128,2,-1,2,1,4,2,0,0
1763470603.3656712,-2,-5,-9,-4,-3,-10,-3,-1
1763470603.3716636,0,-1,0,1,0,-5,-2,-1
1763470603.3808198,0,0,-2,-1,1,5,2,-1
1763470603.3955727,-3,-2,2,-1,-3,-3,0,-1
1763470603.4180765,2,5,8,-2,0,6,0,1
1763470603.4317753,-1,2,0,0,-1,3,-1,-2
1763470603.4408395,0,-2,-4,-2,-2,-2,-2,-3
1763470603.4556737,-2,-6,-7,-2,-3,-1,0,0
1763470603.477996,1,-1,-1,0,0,8,4,0
1763470603.5006797,-1,-1,1,1,0,-7,-1,-2
1763470603.5157268,-1,-1,-2,1,0,8,-2,-3
1763470603.538111,-2,3,-2,-1,-1,5,-1,0
1763470603.5516927,-1,-2,1,0,-3,-9,-2,-1
1763470603.5608985,-2,0,-4,-3,-1,-1,-1,-1
1763470603.5837784,1,0,-1,0,-1,-2,-2,-2
1763470603.5980148,-2,-2,-4,-4,-3,-2,-2,-1
1763470603.6116748,0,-1,-1,-1,0,1,1,0
1763470603.6281111,-2,-1,-1,0,-3,1,-1,-2
1763470603.6354856,-1,-2,-1,0,-2,-2,0,0
1763470603.6580644,-2,-1,1,0,-1,-6,-1,-3
1763470603.6719043,-1,-1,-3,-3,-2,-9,-2,-2
1763470603.680681,-1,1,-1,-1,0,-2,1,-1
1763470603.695599,-1,-3,-1,-3,0,0,-1,-2
1763470603.7181215,1,-1,-1,0,-2,-5,-3,1
1763470603.7316823,-4,-1,-1,-3,-1,-2,-2,-2
1763470603.7409072,-4,-3,-3,-2,-2,-1,-2,-2
1763470603.755642,1,-1,-3,0,-2,0,-1,0
1763470603.7782152,0,1,1,4,5,5,0,0
1763470603.7917354,-1,-1,1,-1,-3,-6,-4,-3
1763470603.8008485,0,0,-2,0,-1,-11,3,0
1763470603.8155735,-2,-1,-1,-2,0,-1,-1,0
1763470603.8380916,0,-1,-1,0,0,0,-1,-1
1763470603.8516667,-1,0,-1,-2,-2,1,-1,-1
1763470603.8608327,0,-1,0,0,1,3,-1,1
1763470603.8754954,1,0,0,-1,-1,-1,1,0
1763470603.898105,-1,-1,1,-1,3,5,2,-1
1763470603.9204905,-1,-1,-1,-5,-3,-3,-3,0
1763470603.9356518,-1,-2,-3,-2,-3,-2,-1,0
1763470603.9655282,-3,0,0,1,-1,-2,-1,1
1763470603.971713,-1,-1,-2,0,2,0,-2,0
1763470603.980968,0,-1,-1,0,-1,0,0,0
1763470603.995463,0,-2,-1,-2,-3,-1,0,-1
1763470604.0180454,-1,-1,-3,-1,0,0,0,-2
1763470604.0404987,-2,-2,-1,-2,2,-1,-1,-1
1763470604.0554833,-1,-1,0,-1,-1,-1,-2,-1
1763470604.0781193,-1,0,-1,-2,-3,0,-1,-3
1763470604.1005714,-3,0,-1,1,-3,-1,0,1
1763470604.1156447,0,-2,0,-1,0,0,-2,0
1763470604.1379888,-1,0,-1,0,-1,-2,0,0
1763470604.160579,-2,-1,-3,-1,0,-2,0,-2
1763470604.175629,-3,0,-1,-1,-2,-2,-1,0
1763470604.1980252,0,-2,-1,-2,0,-2,-2,-2
1763470604.220515,0,0,2,2,0,-1,0,-2
1763470604.234625,0,-2,-2,-1,1,-2,-2,-1
1763470604.243137,-1,-2,-1,-2,-3,-3,-2,-1
1763470604.2581065,-1,-2,-2,-1,-2,-2,-1,-2
1763470604.28048,-2,-1,0,0,-1,0,0,0
1763470604.2948592,0,0,-2,-1,-1,0,-2,-2
1763470604.301672,-2,-1,0,1,0,-2,-1,0
1763470604.318239,0,-1,0,-2,-1,-1,0,0
1763470604.3408623,0,-2,0,0,0,1,1,-2
1763470604.354865,-1,-2,-1,-1,-1,1,-2,-1
1763470604.3617342,0,-1,-1,-3,1,0,-1,-1
1763470604.378217,-1,-1,-3,-2,-2,-2,-2,0
1763470604.4006972,-1,-1,-1,-1,-1,-1,0,0
1763470604.4307914,-3,-2,-2,-1,-3,-3,1,-3
1763470604.4381762,0,0,0,-3,-1,0,-1,-2
1763470604.4606373,-1,-1,-2,0,1,0,1,0
1763470604.4750245,-1,-1,-1,-3,-1,-1,-1,0
1763470604.4818318,-1,0,-1,-2,-1,-3,-1,-1
1763470604.5057967,0,0,0,-1,0,-1,0,0
1763470604.5209067,0,-2,-1,0,0,-1,-2,0
1763470604.5351977,0,-2,-2,-3,-2,-1,-1,-1
1763470604.5419927,-1,-1,-1,1,1,0,-2,-2
1763470604.558232,-3,-1,-1,2,0,-1,1,0
1763470604.5806277,0,-1,-1,0,-3,-2,-2,-2
1763470604.594205,-1,1,0,0,-1,-1,-1,0
1763470604.6034203,-2,-1,0,0,1,-1,1,-1
1763470604.6183133,-2,-2,-1,-2,-1,-1,-2,-27
1763470604.6407862,-1,0,-3,-2,0,1,-4,-5
1763470604.6543238,-3,-1,1,0,-2,-3,-1,-2
1763470604.663231,1,-2,-2,0,-3,-2,1,25
1763470604.678844,1,-2,0,1,0,0,2,8
1763470604.700841,-1,-2,-2,-2,-2,1,-1,5
1763470604.714421,-2,-2,-1,0,-1,-1,-2,4
1763470604.7232814,-1,1,-1,1,-1,-2,0,-1
1763470604.738286,0,-1,1,-2,0,0,-2,2
1763470604.7609794,-1,0,-3,-1,-2,-2,1,2
1763470604.783294,0,-2,-1,-1,-1,-1,0,2
1763470604.7982469,0,0,0,0,-1,-3,0,-1
1763470604.8281384,-1,-1,-1,-1,-3,-1,1,-1
1763470604.8342478,0,-2,-1,-2,0,-2,0,0
1763470604.8434489,-2,-1,-1,0,0,-1,-1,-1
1763470604.8583217,-2,-1,-2,1,0,-1,-3,-2
1763470604.8881652,0,1,1,0,-1,-2,-1,1
1763470604.8941722,-2,0,0,-1,-1,0,-1,0
1763470604.9032097,0,-2,-3,-3,0,1,-1,-1
1763470604.9180074,0,0,-3,1,0,-2,-1,-3
1763470604.9405427,-1,-1,1,-1,2,0,-1,0
1763470604.954264,-2,-1,-1,-4,-1,-1,-1,-1
1763470604.9632013,-1,-1,1,-2,-2,-1,0,0
1763470604.9782877,-1,-2,-3,-1,-3,-1,2,-1
1763470605.0008125,-2,-2,-1,1,-1,0,-2,0
1763470605.0144315,1,0,-1,0,-1,0,-2,1
1763470605.023456,-2,-2,-1,-1,-1,2,-1,-1
1763470605.0384426,0,-2,-1,-2,-1,0,-1,-1
1763470605.06077,-2,-1,-3,-1,-1,-1,1,0
1763470605.0832684,-1,1,-1,0,1,-2,0,-2
1763470605.0981874,1,-3,-2,0,-4,1,-1,0
1763470605.120661,0,-1,0,-1,-1,-1,-2,-3
1763470605.1283958,-1,0,-3,-3,-1,-1,0,-1
1763470605.144152,-2,-1,-2,-4,-3,-3,-1,-1
1763470605.1584299,0,-1,0,-2,-3,0,1,0
1763470605.1805396,-1,0,0,0,-2,-3,0,0
1763470605.2108383,-2,0,-1,-1,0,0,-3,-2
1763470605.2173574,0,-1,0,-1,0,0,0,0
1763470605.224463,-1,-3,-1,0,0,-2,-2,1
1763470605.2408862,0,-1,-1,-2,1,-1,-2,0
1763470605.26311,1,0,-1,0,-1,-2,-1,-1
1763470605.2775338,-2,-3,-1,0,-1,0,1,-1
1763470605.2844558,-1,-1,-2,-1,-2,-1,0,-2
1763470605.3081477,0,0,-1,1,-2,-1,-1,0
1763470605.323218,-2,-1,-3,-1,0,-1,-1,-2
1763470605.3376539,-1,-2,-1,-2,-3,-2,-1,-2
1763470605.344531,0,0,-1,9,16,2,-2,-1
1763470605.3617098,-3,-2,0,-10,-13,0,-3,-8
1763470605.3832612,-2,-1,-2,-4,-8,0,0,-10
1763470605.3973532,0,0,-2,0,0,-1,-1,5
1763470605.4042494,2,-2,0,-1,0,-1,-2,-2
1763470605.4208364,-2,-2,2,3,6,1,-1,0
1763470605.4431186,-3,-2,0,2,7,0,0,3
1763470605.4575841,1,0,-1,0,-1,-2,-1,1
1763470605.4643316,-1,-1,-2,-2,0,0,-1,-4
1763470605.4805627,-2,-1,-2,-1,-1,0,0,0
1763470605.5041397,0,-1,-1,0,0,-1,0,0
1763470605.5169039,0,-2,-2,1,0,-1,-1,-2
1763470605.5258589,-1,0,-2,-2,-2,-1,0,-3
1763470605.540788,0,1,0,0,1,0,0,0
1763470605.5712414,0,-1,-2,-1,1,0,-1,-1
1763470605.5770164,0,-1,0,0,-1,-1,-1,-1
1763470605.5858142,0,-2,-2,-1,0,-1,-1,-2
1763470605.6008487,-2,-1,-2,-2,0,-2,-1,-2
1763470605.6231825,0,-1,0,-1,-1,-1,0,-1
1763470605.6368635,0,0,-2,1,-1,-1,0,-6
1763470605.6458125,-1,0,-2,-1,-2,0,-1,-5
1763470605.660804,-4,-2,0,-2,-2,-1,-2,-18
1763470605.6831002,-3,-1,-1,-2,0,1,-1,6
1763470605.6968796,-1,-3,0,-2,-3,-3,0,5
1763470605.7057257,-2,-1,-1,-1,-3,-2,-3,-8
1763470605.7205482,0,1,1,1,-1,-1,-1,4
1763470605.7430725,-1,-1,-1,1,0,-2,-2,1
1763470605.756824,0,-1,-1,-1,-2,1,-2,-2
1763470605.7658236,-2,0,-2,-5,-2,-1,-2,1
1763470605.7807298,-1,-1,-3,0,0,0,-1,0
1763470605.8039203,0,-1,0,-2,-3,0,-1,1
1763470605.8167462,-1,-2,-1,-1,1,1,-1,0
1763470605.825731,0,-4,2,-1,-1,-2,-1,1
1763470605.8480392,0,0,-2,-1,-1,-2,0,0
1763470605.863054,-1,-1,-1,-1,-1,-4,-1,-2
1763470605.876699,0,-2,-1,2,2,0,0,-1
1763470605.8918295,-2,0,-2,1,-1,-2,-2,0
1763470605.9006445,-2,-1,1,-1,-1,-2,-1,0
1763470605.9231257,-2,-2,-1,-2,-3,-2,0,0
1763470605.936677,0,0,0,3,-3,-2,-1,0
1763470605.945713,0,-1,-1,0,-3,0,-1,-1
1763470605.9607627,-1,-1,-2,-3,0,0,-2,-2
1763470605.9832902,-2,-1,-2,-4,-5,0,0,-3
1763470606.0055733,-2,-2,-1,-2,-1,-1,-2,-2
1763470606.0205095,-1,0,-1,-2,-3,-1,0,0
1763470606.0431924,-2,-1,0,-2,1,-2,-1,-1
1763470606.0656235,-1,-1,0,-1,1,0,-1,1
1763470606.0809567,0,0,-2,1,-1,-1,-2,-1
1763470606.1032887,0,-4,-2,-2,-2,-1,0,-1
1763470606.125526,1,-1,-1,-1,0,-1,-1,0
1763470606.1399646,-1,-3,0,1,-2,0,-1,2
1763470606.1467466,24,8,7,0,-8,-2,0,3
1763470606.163161,-12,-20,-34,-12,-5,-2,-2,-2
1763470606.1855206,-1,0,6,6,13,-1,-2,-3
1763470606.1993477,-6,-7,-10,0,-25,-15,-4,-1
1763470606.2157512,-2,10,7,8,-21,16,-2,-3
1763470606.2231588,-5,-8,-28,-6,62,5,-3,-4
1763470606.2455225,9,19,35,24,34,-8,1,6
1763470606.259255,26,9,0,-34,-38,-8,-6,18
1763470606.268353,-14,-19,-3,-17,-16,-3,-15,-4
1763470606.283124,3,8,12,0,23,51,2,-4
1763470606.3057806,-5,-5,2,-7,-25,-11,-4,-6
1763470606.3191762,0,1,3,2,-43,-16,4,-4
1763470606.3282452,-1,-2,2,-11,-46,-22,-1,-5
1763470606.3432832,-2,-4,0,-8,-20,-5,-6,21
1763470606.365674,-5,1,0,12,22,4,51,23
1763470606.379217,-3,0,0,-3,-5,9,-13,-18
1763470606.388155,8,-3,-5,-18,-53,-22,19,2
1763470606.4031482,-2,-4,-3,-17,-7,8,-1,-8
1763470606.42574,-10,-5,0,7,-4,-13,-20,-23
1763470606.4393065,4,2,1,18,32,9,0,-6
1763470606.448214,-23,-2,0,-7,12,37,-11,-104
1763470606.4631917,-6,2,1,-5,-22,-11,48,102
1763470606.4931028,-9,-2,2,5,34,30,-24,-76
1763470606.4992652,9,2,3,-4,3,50,32,2
1763470606.5082774,-8,-6,-4,-13,-9,51,-3,-34
1763470606.5230687,-2,0,1,2,-21,-31,-32,30
1763470606.5446155,8,4,-13,-23,-8,39,-7,-7
1763470606.5611176,-21,-10,-16,1,-22,-41,-51,-51
1763470606.5680487,5,-16,-22,-13,5,-60,14,-64
1763470606.5831575,26,14,19,42,17,23,20,74
1763470606.6055777,-16,1,-12,-50,-20,-38,1,62
1763470606.6191778,-12,-13,-11,-1,11,-7,-91,-64
1763470606.6281557,24,0,-8,1,-5,33,-29,82
1763470606.6505663,-39,1,-14,-38,15,26,-25,42
1763470606.6656833,38,14,33,-8,16,-48,2,-53
1763470606.6797094,6,12,11,37,24,62,1,-88
1763470606.6883423,28,20,25,-5,23,-37,-13,-17
1763470606.7031188,-28,-29,-2,-1,-73,-43,10,-53
1763470606.7256372,25,-12,5,0,-60,42,37,88
1763470606.739673,-3,123,43,64,54,2,26,-26
1763470606.7556522,-17,100,7,-21,-3,35,36,42
1763470606.770591,-20,-79,-2,2,-6,-60,-52,37
1763470606.7855837,-8,-86,27,-15,17,44,56,-83
1763470606.799269,17,-3,-128,-32,-18,-9,8,-27
1763470606.8158095,-32,76,21,17,36,-38,-36,-39
1763470606.822405,13,-56,41,8,-52,-91,-22,42
1763470606.8292437,-1,-46,-12,-1,8,-45,-3,70
1763470606.8456414,1,-84,-11,-16,-15,-38,-26,-70
1763470606.8592877,7,71,-17,-9,-16,-48,-34,-46
1763470606.868313,-5,-6,-36,-31,11,-25,-9,-82
1763470606.883135,14,37,-50,-9,6,9,-3,21
1763470606.9055965,-56,41,-25,-32,-27,36,-16,-68
1763470606.92833,-8,28,32,35,33,8,-10,-18
1763470606.9434328,-19,60,29,18,-15,-35,93,102
1763470606.9655712,10,-11,9,17,26,0,-35,-51
1763470606.9881194,-1,-4,-28,-57,-21,7,10,16
1763470607.003302,25,-5,55,35,15,30,18,82
1763470607.025527,-25,25,-2,10,-8,58,28,-29
1763470607.0481277,21,22,-15,-53,1,-8,-15,62
1763470607.0624654,-11,-42,-48,12,-4,35,-45,-19
1763470607.0691614,-5,4,-19,-52,43,-1,-33,-60
1763470607.0930545,7,-7,25,43,-9,10,3,-48
1763470607.1080916,1,29,7,-9,17,-8,-9,30
1763470607.132215,5,-8,12,19,-30,-1,19,13
1763470607.1457548,-6,-7,22,31,7,-15,-7,-25
1763470607.1518104,4,-15,-47,31,10,-18,7,9
1763470607.1607373,-6,-26,24,-28,-54,35,28,-43
1763470607.1906862,-12,16,-2,-51,26,-48,-10,-15
1763470607.2056744,27,-43,20,1,1,61,6,114
1763470607.2207704,-18,8,-29,-13,-41,-24,-23,-48
1763470607.234331,-7,9,21,-7,26,28,53,-27
1763470607.2434607,-14,-11,-6,-32,-46,-19,-31,-7
1763470607.256911,33,25,23,15,26,-16,7,69
1763470607.2658458,-21,-17,-1,-4,36,-33,2,22
1763470607.2807236,-20,-30,-17,46,32,-25,-36,-25
1763470607.294797,12,-16,7,35,24,27,4,62
1763470607.3035805,-2,-6,-58,-13,24,-31,5,17
1763470607.3169587,19,12,-22,-32,7,-16,-9,32
1763470607.325783,8,-28,14,29,35,-6,11,49
1763470607.3406825,-15,20,22,-24,-44,-28,-34,-41
1763470607.3543806,1,-18,3,16,-32,-41,13,-22
1763470607.3693156,1,-22,-28,46,-6,56,-1,41
1763470607.3769655,-31,-16,8,8,4,30,-26,-28
1763470607.3857474,7,-42,-26,-28,-2,-52,40,-6
1763470607.40081,-15,0,-16,-50,-70,-43,-21,-28
1763470607.4145632,-14,-12,11,21,-4,-4,-21,-60
1763470607.4234076,4,-4,-5,41,7,10,23,-16
1763470607.4368029,-33,37,4,-36,14,18,-29,-16
1763470607.445839,3,23,-26,-37,-8,16,14,-2
1763470607.4682565,15,-2,6,-6,-61,-29,14,71
1763470607.47439,15,1,-33,-51,11,3,-5,-12
1763470607.4835112,33,8,11,-16,-20,7,6,82
1763470607.4968283,-7,-22,11,57,110,17,-11,-60
1763470607.5118034,-4,-2,19,16,-19,8,-13,-80
1763470607.521872,30,14,15,25,-19,21,27,19
1763470607.527258,-27,18,4,-3,-15,-49,-30,-89
1763470607.5344841,-28,-16,-1,4,-19,16,-12,-44
1763470607.5432038,13,-55,-25,-51,-15,16,2,97
1763470607.5569582,41,-35,-34,-66,15,73,9,52
1763470607.5735362,-3,31,32,70,72,29,-8,-13
1763470607.581386,-2,-22,-4,35,7,-15,-19,-45
1763470607.604315,-18,2,6,-59,-12,7,-6,-20
1763470607.6179395,6,-13,9,-31,-43,-53,17,5
1763470607.6263268,19,-6,8,-25,61,27,10,31
1763470607.648068,-4,-11,7,-4,9,-8,10,11
1763470607.6542952,-10,29,-7,22,-5,6,-8,-65
1763470607.6632843,-13,8,-11,20,-14,-19,-39,12
1763470607.6767697,-2,-34,-2,-2,5,58,-29,-11
1763470607.70128,-17,-2,-2,-6,-19,-29,-11,-15
1763470607.7142956,-15,-5,-9,14,8,-24,-35,-106
1763470607.7232542,26,10,27,16,-44,-6,14,6
1763470607.7457035,-8,-10,0,5,84,2,-27,-43
1763470607.7609746,7,-13,-24,-5,-4,82,73,99
1763470607.774514,9,9,15,-30,-60,-38,12,32
1763470607.7835696,-3,19,15,92,34,-72,-56,-1
1763470607.8058262,-28,6,-4,14,-65,-67,-10,29
1763470607.8206336,-16,9,3,-14,-27,1,13,-32
1763470607.834299,2,-29,-12,-39,-43,-36,0,-40
1763470607.8434134,26,25,60,30,-3,65,49,5
1763470607.8569057,10,4,20,26,32,-4,-13,-31
1763470607.8658347,-17,-38,-35,37,76,-39,-17,44
1763470607.8805861,32,-6,35,17,101,73,5,53
1763470607.8942978,8,-6,-25,7,-40,-43,-8,-19
1763470607.9031684,-2,-14,-12,-52,59,70,60,-34
1763470607.9258294,-12,7,-6,36,7,47,11,-6
1763470607.940007,-8,-14,0,-29,-62,-41,-4,-28
1763470607.9468136,1,16,9,41,-19,-4,-17,-4
1763470607.9542537,-38,-26,-52,-4,24,-12,11,-18
1763470607.9633183,10,21,-3,-9,-15,28,20,-16
1763470607.9766598,29,15,11,-24,-26,-46,15,74
1763470607.9857495,-6,11,-40,-51,10,-11,-9,-16
1763470608.0001466,-4,-9,17,50,29,-46,-21,-39
1763470608.0067515,-9,-11,33,122,52,-31,-27,-8
1763470608.0307364,16,19,-6,35,-26,20,12,42
1763470608.0450158,4,-22,-6,-75,-13,8,-10,-3
1763470608.051703,-32,-11,-32,-38,-18,-44,-25,-44
1763470608.0682654,-17,5,10,10,22,4,-11,-7
1763470608.0906007,10,4,0,-20,10,8,-2,-32
1763470608.1048126,-10,4,-10,12,84,-10,-11,-17
1763470608.1134279,0,-26,5,-81,-84,-6,-5,12
1763470608.1283753,7,-3,-18,40,-28,37,34,17
1763470608.1504238,-12,8,4,33,15,25,16,39
1763470608.1583686,-8,8,-3,10,-3,9,7,22
1763470608.1650612,33,-2,27,13,-20,-18,-23,-30
1763470608.1718912,33,24,10,31,90,-2,0,48
1763470608.188111,-26,-7,5,-40,-12,68,42,-15
1763470608.2106895,2,5,26,48,46,-36,-22,-1
1763470608.226689,-4,5,16,-18,-33,-7,-41,4
1763470608.2333028,26,6,-3,-60,-34,-3,7,-4
1763470608.2483854,-2,15,-1,-39,7,12,-17,-11
1763470608.2706306,40,9,-3,-42,-59,-63,60,61
1763470608.285101,-10,-3,-15,-26,22,-11,-16,-44
1763470608.29168,4,-15,19,25,-11,-10,-29,-80
1763470608.3080664,-19,3,-48,-44,-18,-90,-53,-28
1763470608.3307745,-18,-7,16,2,-22,12,-3,-63
1763470608.3449664,-7,-13,-13,20,84,36,24,-6
1763470608.3592606,-3,10,-17,-45,32,-2,49,-28
1763470608.368184,-11,11,2,31,41,2,-8,8
1763470608.3907292,6,-6,-17,-20,11,63,35,-22
1763470608.4043868,13,6,21,-13,-41,-5,-4,36
1763470608.413296,-16,-3,-30,-49,-24,-15,14,25
1763470608.435743,-3,-12,4,19,3,12,-25,17
1763470608.4507647,-28,-9,-8,11,5,31,8,-45
1763470608.4644237,28,-5,-22,-8,-46,-15,15,49
1763470608.473365,-13,5,14,43,-31,-15,27,-28
1763470608.488316,12,-3,6,26,-15,-39,-14,58
1763470608.510759,7,-8,-18,12,0,-3,-12,-15
1763470608.5243049,-21,9,1,-48,-18,8,8,-8
1763470608.5333743,-1,4,14,94,5,2,74,0
1763470608.548491,-3,-4,23,-29,-37,-42,-3,3
1763470608.5945582,4,-4,10,38,-8,10,9,80
1763470608.6010203,-1,-2,1,-44,-24,21,56,-5
1763470608.6081955,11,7,3,28,70,48,37,15
1763470608.6299524,4,-8,-4,-19,-22,-33,-20,45
1763470608.6385188,-1,0,-12,-12,18,11,4,12
1763470608.6443477,-2,-1,-10,-7,-13,-18,-6,-25
1763470608.6534953,15,-2,27,26,-14,-47,-48,51
1763470608.668331,13,-11,-27,47,58,9,-26,-23
1763470608.6908484,2,-5,-9,2,-5,-7,2,45
1763470608.7042646,-17,1,-12,-38,-32,-6,-1,-39
1763470608.7133725,1,-2,1,-2,-9,-24,-38,-45
1763470608.7284317,-14,2,5,30,28,50,25,-15
1763470608.758266,2,4,6,11,-8,9,26,-50
1763470608.7644138,-3,2,-8,-9,-3,-2,-6,44
1763470608.773252,26,-4,-7,1,17,-8,7,31
1763470608.788117,-3,3,7,-32,-53,-20,-12,-41
1763470608.8108118,1,-2,-12,-18,12,-24,-14,-21
1763470608.8331463,-1,-6,-30,-2,17,14,5,58
1763470608.8481984,4,0,9,24,8,-7,-8,40
1763470608.8711622,-25,-19,-15,-17,-15,5,25,-42
1763470608.893085,7,-5,0,-17,-73,-7,-1,19
1763470608.9080458,10,1,17,35,10,43,12,-85
1763470608.9306812,-1,10,25,-8,24,-17,-24,-31
1763470608.9531202,-23,-8,10,-7,-16,-25,-8,-87
1763470608.967876,-4,-9,6,-9,4,-19,-9,0
1763470608.9744515,-8,-2,-11,-30,67,-2,-11,-67
1763470608.9908776,2,0,-10,-17,59,22,13,-13
1763470609.01308,6,6,21,31,-18,-34,-24,-8
1763470609.027545,9,-1,-12,-2,-17,31,-24,9
1763470609.0344415,6,-3,-6,19,30,-7,-11,27
1763470609.0508807,15,-14,-46,-73,3,-1,21,46
1763470609.073138,5,-1,19,89,70,-30,-10,-39
1763470609.0957456,-3,6,7,-35,-58,27,12,17
1763470609.1109622,-15,14,22,18,20,-17,5,41
1763470609.1333003,-12,-10,-6,23,-46,-49,-30,3
1763470609.1477354,6,3,3,-12,-43,-33,1,54
1763470609.1545503,-2,-5,1,8,-7,-10,-6,-7
1763470609.1706018,-9,-7,-6,-24,-4,7,33,-27
1763470609.1933079,-3,2,2,-33,-27,1,-2,-38
1763470609.2075577,20,-6,-38,1,43,24,10,34
1763470609.21445,-19,0,-14,10,-13,-31,11,-7
1763470609.2306144,-5,1,11,5,-2,-56,-18,-8
1763470609.2530909,-7,-5,-15,7,4,26,-7,3
1763470609.26755,-16,-8,-11,-3,-5,43,13,-27
1763470609.2743883,8,2,27,58,4,-21,-7,1
1763470609.2905443,-4,6,15,-2,11,45,61,15
1763470609.3138533,-3,4,10,21,59,-21,-35,-48
1763470609.326711,-6,-3,-26,-31,-13,40,-23,-39
1763470609.3359168,9,-3,-25,-64,11,38,-5,-27
1763470609.3507411,16,8,15,31,-1,-62,13,-9
1763470609.3733304,-15,-1,7,3,-35,-27,-46,-13
1763470609.3869288,7,2,-9,45,19,20,36,45
1763470609.413013,21,8,24,-7,45,22,5,26
1763470609.4332318,2,-2,-5,-18,-8,-9,-37,-9
1763470609.456063,4,-3,3,8,14,-48,-28,-4
1763470609.4709148,-10,-6,-13,-22,24,35,5,-13
1763470609.501174,24,12,19,13,20,38,1,8
1763470609.5070932,-1,-1,-6,-5,-41,-24,29,-22
1763470609.516144,-8,-8,-36,1,9,-15,-28,-38
1763470609.5312552,-18,-8,-1,-33,-15,-25,-5,11
1763470609.5531347,16,-8,-16,3,10,9,-18,-49
1763470609.5667753,11,8,19,41,4,43,20,2
1763470609.575865,6,-2,-11,-28,11,9,-13,-67
1763470609.5908456,1,-9,-13,-37,-22,29,-8,-9
1763470609.613133,-22,-5,-15,-18,23,-36,-46,-53
1763470609.6271112,2,4,-2,33,25,-1,-7,35
1763470609.6357522,-7,0,1,2,12,-38,-33,-77
1763470609.650953,3,-3,-34,-28,15,25,-5,-27
1763470609.6734688,-6,0,13,1,-46,-18,-8,15
1763470609.686808,0,-1,6,9,-16,-31,15,38
1763470609.6958153,-4,-1,1,0,-10,23,55,71
1763470609.7106762,21,6,23,-8,-26,-25,-15,-22
1763470609.7331886,-21,-4,7,-28,-9,22,4,9
1763470609.7472932,-2,0,3,25,22,2,-5,-46
1763470609.7558262,6,2,4,59,15,-6,-14,71
1763470609.771248,-3,6,8,-10,-3,17,44,11
1763470609.7933292,12,4,5,-3,8,30,13,43
1763470609.8231618,-13,-2,-5,7,-18,-35,-7,-11
1763470609.8307598,-3,3,5,-19,-10,-29,-18,-24
1763470609.8531158,1,-1,-1,2,1,11,22,83
1763470609.8759584,-10,-10,6,1,27,-58,-58,-30
1763470609.8909156,9,-5,-13,35,-21,10,9,-10
1763470609.9131203,12,4,-7,5,3,2,14,75
1763470609.935608,-14,0,-4,2,29,-1,-28,-16
1763470609.9501245,-2,2,11,28,-1,8,-2,-34
1763470609.9568822,-14,0,11,61,42,12,46,-2
1763470609.9733486,-12,-6,-5,-31,-8,-1,-9,-44
1763470609.9956427,1,-1,3,-11,-12,-16,-9,9
1763470610.0102654,3,-5,-9,21,4,-3,3,14
1763470610.0166774,-3,5,7,51,-7,-4,-12,-19
1763470610.033323,-6,-9,-7,3,1,58,16,-41
1763470610.0556662,-7,-4,-9,4,-31,-23,36,-23
1763470610.0700767,7,0,-26,-61,-31,-80,33,6
1763470610.0768766,-18,0,4,-14,-32,-42,-32,-61
1763470610.0925004,16,5,29,12,2,53,-20,13
1763470610.101011,-5,-16,-23,-63,-6,15,13,-6
1763470610.115785,-20,-4,-25,-65,1,-25,-19,-22
1763470610.1303194,-4,7,16,3,39,-4,19,88
1763470610.1452045,-3,-5,-5,16,2,45,-31,-12
1763470610.1544197,7,-1,4,0,3,-14,-10,-22
1763470610.1768463,-10,-4,11,36,31,70,28,-41
1763470610.1908357,14,4,2,35,-15,16,44,87
1763470610.1969068,2,-16,-25,-46,19,25,31,13
1763470610.21311,-14,7,-5,-4,-1,-46,-9,-48
1763470610.2430851,-8,-8,3,17,-22,-22,0,7
1763470610.2499359,20,-8,-6,-3,-2,1,-65,-33
1763470610.2567446,27,3,-15,2,-21,-6,3,38
1763470610.273133,0,-1,-13,-25,-2,-2,-43,-25
1763470610.2946944,-4,-3,18,3,-4,24,32,2
1763470610.3034246,2,9,13,60,-4,-43,-9,66
1763470610.30951,-11,-10,-25,-70,18,54,-11,-31
1763470610.3183486,4,3,-23,-14,30,1,-11,10
1763470610.3331213,5,-1,3,-45,-50,-18,-6,-19
1763470610.3557005,7,2,-1,2,12,-18,-2,24
1763470610.3781593,-6,-9,-25,20,31,-6,-23,-4
1763470610.3930714,-1,1,-16,29,10,-4,-17,16
1763470610.4231944,-15,-7,0,-41,-31,-11,-2,-1
1763470610.429409,-2,-3,7,13,-4,37,32,1
1763470610.4384394,-13,-2,7,-15,7,-1,-6,-42
1763470610.4532568,14,3,12,17,39,-4,2,-30
1763470610.4759424,2,-5,-6,11,4,-4,-7,-4
1763470610.489663,11,2,-1,-17,-18,31,41,20
1763470610.498558,-13,1,-6,10,-17,-9,7,-32
1763470610.5135784,-4,3,-9,9,-17,-42,-22,-22
1763470610.5363152,-4,7,8,11,-24,-11,-8,-51
1763470610.5498352,2,-1,-6,-13,-2,23,-17,-4
1763470610.5661845,-16,4,9,24,-16,-32,-45,8
1763470610.5723462,-17,-13,-2,23,15,8,-19,-76
1763470610.5809338,-6,-10,-19,-51,2,35,2,-4
1763470610.5957296,5,5,-2,-30,28,20,-7,31
1763470610.609248,-2,0,6,18,7,-2,17,50
1763470610.6256843,3,10,3,-13,56,2,-4,-12
1763470610.633174,-9,3,11,28,8,-56,-36,30
1763470610.6557035,-9,3,12,55,-28,-44,26,62
1763470610.669489,10,7,19,11,-14,38,0,15
1763470610.6784642,-2,-3,5,-29,-42,-38,-6,10
1763470610.6929598,1,2,14,6,-9,7,-16,-8
1763470610.6993425,-18,7,34,21,-4,-18,-39,-34
1763470610.7164772,6,-16,-25,6,37,-20,8,-8
1763470610.7458787,-2,-7,-41,-37,0,20,20,12
1763470610.753296,20,12,17,-1,-37,-20,-28,9
1763470610.7759936,-10,-6,5,25,17,11,-3,-22
1763470610.7983673,-10,-3,5,-19,-22,-11,9,-32
1763470610.8138227,-21,-7,-6,-26,36,54,6,-4
1763470610.843587,-9,-5,5,10,-21,-7,-9,15
1763470610.8493118,11,-6,5,15,-25,-15,-9,-11
1763470610.8581505,5,6,4,15,-22,-32,8,-27
1763470610.872559,1,-3,-12,-22,6,25,-5,-7
1763470610.8871038,12,2,11,-5,13,20,29,31
1763470610.8951266,-2,0,-6,-16,8,8,-49,-5
1763470610.903642,-15,-14,-12,-42,19,1,-20,-23
1763470610.91829,26,8,12,-6,-37,-71,15,90
1763470610.9324913,-23,-10,-2,-32,-9,-43,-12,-80
1763470610.9392278,-4,4,22,29,15,-8,-3,-69
1763470610.9556139,4,-13,-22,28,-1,77,52,17
1763470610.9781668,-4,3,11,-3,34,17,7,12
1763470610.9926238,8,0,6,-5,-9,2,11,5
1763470610.999374,2,5,3,-10,27,74,-10,-65
1763470611.015668,5,1,-4,35,46,21,-1,-6
1763470611.045648,-8,2,-23,15,25,-53,-32,9
1763470611.052446,-2,5,31,31,-21,-51,-17,-9
1763470611.0592346,-5,-3,4,-17,-30,-21,-12,-5
1763470611.075683,1,-2,4,-2,-10,-2,11,-51
1763470611.0980794,-10,-6,-11,-2,-10,53,21,-18
1763470611.112609,1,-6,-6,-4,11,12,-4,41
1763470611.1194355,-4,-3,23,51,-5,3,12,2
1763470611.1362052,3,3,-13,-51,4,6,7,7
1763470611.1574821,8,0,-10,-15,-19,-26,-8,2
1763470611.1659002,-11,-6,-11,8,-10,-12,0,7
1763470611.1726668,3,-2,7,-2,-6,10,16,42
1763470611.1794116,-8,-6,-9,17,19,11,6,46
1763470611.195949,4,8,5,-8,-5,23,-2,-4
1763470611.2185314,-6,-5,-23,-9,12,16,-20,-15
1763470611.2319238,-24,-1,12,56,43,-7,-16,-34
1763470611.2409916,7,-8,-3,-4,-13,-12,-8,-10
1763470611.255823,-1,-6,-11,-15,-21,-5,-2,-15
1763470611.2784545,1,0,0,-14,-16,-6,-1,-12
1763470611.29212,-3,1,-1,-2,-11,-12,1,2
1763470611.30127,-4,-5,-12,-4,27,13,-4,-20
1763470611.3157399,7,-4,2,2,9,13,5,3
1763470611.338873,-12,-4,-1,-3,-11,-7,-25,-10
1763470611.3531816,-67,35,-20,-6,3,44,9,7
1763470611.3609462,-22,17,7,6,8,-5,-5,-44
1763470611.3756225,28,-18,9,-2,-2,-5,11,9
1763470611.3981488,8,-14,0,-26,-29,-32,2,-4
1763470611.412005,6,17,16,2,1,1,32,-17
1763470611.421045,-12,-4,-27,-8,3,3,-25,-28
1763470611.4431143,8,-11,19,7,-11,-9,-7,2
1763470611.4586806,14,2,2,13,22,1,4,15
1763470611.4718156,12,-6,-20,-11,-7,-5,-10,0
1763470611.4882908,-4,-5,3,-6,-18,-8,-1,2
1763470611.4955885,-6,-4,5,18,1,3,3,-1
1763470611.5183024,-5,-5,-12,-16,-14,-7,-10,-2
1763470611.531736,3,-2,-2,-1,6,-5,-6,-1
1763470611.5408044,-9,-21,-6,-3,-3,-1,4,0
1763470611.5557368,10,7,7,9,3,-2,-2,3
1763470611.5783057,-23,-1,3,2,8,-1,-4,-6
1763470611.5917976,-1,5,0,0,9,-3,-1,0
1763470611.6011953,2,9,-8,-4,-8,-3,-1,-1
1763470611.6151454,1,-10,-13,5,12,19,0,-1
1763470611.6293635,5,-4,16,0,-11,-1,-1,0
1763470611.6457603,-1,-5,-4,-21,-9,-4,-1,-1
1763470611.651847,6,3,12,3,-4,-3,0,3
1763470611.6608706,-3,-6,-8,-4,-6,-4,-1,-3
1763470611.6749744,2,-1,-6,-6,-9,-4,-1,-1
1763470611.6818073,1,-1,-2,9,15,1,0,1
1763470611.6981742,-1,0,1,3,2,2,0,0
1763470611.7208903,0,1,9,-6,-9,-2,-3,-1
1763470611.7350469,0,-4,3,3,1,-2,-2,-2
1763470611.7420127,-8,-2,-13,-12,-8,-5,-3,-2
1763470611.7582562,-1,7,10,6,-1,-2,0,-3
1763470611.7809048,-3,-5,1,0,-2,-2,-1,1
1763470611.7952204,-1,0,-9,-1,-1,-2,-1,-1
1763470611.8018186,2,-5,-5,2,8,-3,-2,0
1763470611.8181348,3,-3,-2,5,9,-6,0,0
1763470611.840869,1,-4,-2,-5,-5,0,-1,0
1763470611.8555446,-4,-1,-1,-1,0,2,-1,-1
1763470611.8693511,-1,3,7,-4,-6,-1,1,-1
1763470611.8781142,0,-1,-3,-1,-6,-1,-2,0
1763470611.908267,2,8,1,-3,-3,1,-1,-1
1763470611.915005,-9,-4,0,-1,-1,-3,-1,-2
1763470611.9218314,6,-2,-2,-6,-5,2,-2,1
1763470611.938113,6,-2,-3,0,1,-3,-1,-2
1763470611.960699,4,-8,-17,-7,-7,5,-2,-1
1763470611.9743323,-4,0,2,-2,-1,-1,0,-2
1763470611.9832788,-3,1,3,-1,1,-3,0,-1
1763470611.9981377,0,-2,-4,0,0,-1,-2,-2
1763470612.0206861,-2,0,-1,-4,-6,-1,1,-2
1763470612.0431516,-1,-1,2,-2,2,-1,-1,-2
1763470612.0581908,0,0,0,-1,0,-2,-3,1
1763470612.0806873,-1,-2,-1,3,-1,-1,0,1
1763470612.094322,-2,-1,0,2,1,-2,-1,0
1763470612.1032372,-1,0,-2,-5,-8,0,2,0
1763470612.1181252,-2,-1,-2,-2,-1,-2,0,-2
1763470612.1407309,-1,0,1,-4,-4,-1,-1,-1
1763470612.154331,0,0,-1,0,1,0,-2,-2
1763470612.1632414,-2,-2,-2,-1,-1,0,0,0
1763470612.178295,0,-2,-1,-3,-2,-1,-2,-1
1763470612.200923,0,-1,-1,-2,-4,-2,-1,0
1763470612.2144458,-2,0,-1,0,0,-2,0,-1
1763470612.2233553,-1,-2,0,-2,0,-1,0,0
1763470612.23797,-3,0,0,-1,1,0,0,-1
1763470612.244381,-4,-3,-4,-3,-2,0,-1,-2
1763470612.2607312,-1,-1,-1,2,0,-2,-1,2
1763470612.2744513,-1,-1,-1,1,2,-1,-2,-2
1763470612.2833533,1,-1,1,-2,-3,-1,0,-2
1763470612.2982113,0,-2,-2,-2,-2,-1,0,0
1763470612.3207893,1,-2,-2,0,-1,-2,-1,-1
1763470612.3342974,-2,0,-1,-2,-3,-1,-1,-1
1763470612.3433118,-1,0,1,0,-2,-1,-1,1
1763470612.3582554,-1,-1,-2,-1,1,-1,-2,0
1763470612.3809533,-1,-1,2,0,-1,-1,-1,-4
1763470612.3943925,-1,-1,0,0,2,-1,-2,0
1763470612.4034283,-1,-3,-3,-3,-3,-3,-1,-1
1763470612.418161,-1,0,-2,1,-2,-1,0,-2
1763470612.4407516,0,-1,0,-3,2,-2,-2,-2
1763470612.4544134,-1,-1,-1,0,-3,0,-1,-2
1763470612.463363,-2,-1,1,0,1,0,-2,-1
1763470612.4782546,-2,-2,1,0,-1,1,0,1
1763470612.500839,-1,-1,0,-1,-2,0,1,0
1763470612.5144773,-1,-1,-1,1,-3,0,-1,-1
1763470612.5233588,0,0,-1,-1,1,-1,-1,-2
1763470612.5383258,0,-1,-1,-1,-2,-1,-2,0
1763470612.5683055,-2,-1,-2,-2,-2,0,1,-1
1763470612.5746307,-1,-1,-2,-1,0,-2,-1,-1
1763470612.5836613,-1,-1,0,-1,-1,-1,0,-2
1763470612.5983837,-1,-2,-2,-4,-1,-3,-1,-2
1763470612.620846,-1,-2,-2,-2,-1,0,-2,0
1763470612.6432996,0,0,-1,-3,-1,-2,-1,-1
1763470612.6583467,-2,-2,-3,-1,-3,-2,-2,-2
1763470612.6809022,-2,-1,-1,-1,-1,-1,1,-1
1763470612.7107708,0,-1,-1,0,-2,2,0,1
1763470612.718079,-1,-1,-1,-1,-2,-1,-3,-2
1763470612.7407832,1,1,0,-1,-1,-2,-1,-1
1763470612.7634718,-1,-1,-2,-3,0,-1,-2,-2
1763470612.777597,-1,0,-2,-1,-2,0,0,0
1763470612.7844422,-1,-3,-1,-4,-1,0,-1,-2
1763470612.8007011,0,-1,0,0,-1,-2,-2,-1
1763470612.8233423,-1,-2,-2,-1,-1,2,-1,-1
1763470612.837497,-1,-1,1,-1,0,-2,-1,-1
1763470612.8443854,-3,-1,-3,-1,-1,-1,-1,-3
1763470612.861409,0,-2,0,-2,-1,-2,-1,0
1763470612.890798,0,-2,-1,1,-1,-1,1,-1
1763470612.8984134,1,-1,-1,0,-1,-2,-2,-1
1763470612.9047515,-1,-1,-1,-2,-2,-2,-1,-1
1763470612.9208884,-1,1,-2,1,0,-2,-1,0
1763470612.9434469,-2,-1,-1,0,0,1,-1,-1
1763470612.9576755,-2,-1,1,1,1,-1,1,0
1763470612.9643474,1,1,-1,-2,-3,-1,0,-1
1763470612.9808376,-1,-1,-1,-3,-2,-2,-1,-2
1763470613.0033157,0,-1,-3,-2,-1,-1,-1,-2
1763470613.0175498,-1,-1,-3,-4,-3,0,-2,-1
1763470613.0242977,-1,-1,-2,-2,-1,0,-1,-1
1763470613.0406463,-1,0,-2,-3,-2,0,0,-1
1763470613.063149,1,-1,-2,0,0,-1,-1,-1
1763470613.0774674,-2,-2,0,1,-1,-2,-2,-2
1763470613.0843058,-1,-3,0,-1,-2,0,0,-1
1763470613.1082451,-3,-3,-1,0,-1,0,0,1
1763470613.1231983,0,0,-1,0,-1,0,-2,0
1763470613.136784,-1,-1,1,-1,-2,0,-2,-2
1763470613.1518068,-1,0,-2,0,-1,1,0,0
1763470613.1607916,0,-2,0,-2,-1,0,0,0
1763470613.1833675,-2,-2,-2,-2,-2,-2,-1,-2
1763470613.196904,0,1,-1,-2,0,-1,-1,-1
1763470613.2058256,0,-1,-2,-2,0,-2,-3,0
1763470613.220828,0,-1,1,-1,0,0,-2,-1
1763470613.2432213,-1,0,0,-1,-2,-2,0,-1
1763470613.257035,-3,0,-3,-2,0,1,-1,0
1763470613.2659097,-2,-2,1,-2,-3,-1,-2,-1
1763470613.2810051,-1,0,-1,0,-1,-2,0,2
1763470613.3029714,1,-1,-1,-1,0,-2,-1,-1
1763470613.309249,2,-1,1,-1,-2,-1,0,-1
1763470613.3172503,0,-1,-3,-3,-3,-1,-1,-1
1763470613.32585,-1,0,0,1,0,0,0,-1
1763470613.3408074,-3,0,-1,0,0,0,0,-2
1763470613.3631449,0,-2,2,-1,-2,-1,-2,-2
1763470613.3857462,-2,-1,-3,0,-1,-2,-2,-1
1763470613.4008029,0,-1,-2,-4,-3,0,-3,-1
1763470613.4232972,-1,-1,0,1,-1,-3,0,0
1763470613.4369054,-3,-1,-4,-2,0,0,0,0
1763470613.4457738,-1,0,0,0,-1,-1,1,-2
1763470613.4608855,-1,0,0,-2,-1,-1,0,-2
1763470613.4833362,-1,-1,-2,0,0,-1,-1,0
1763470613.4969304,0,-2,1,0,-2,0,-2,-1
1763470613.5057209,-1,-1,1,0,1,-2,-2,0
1763470613.5213683,-1,0,1,-3,-1,-2,1,-2
1763470613.5431576,1,-3,-1,2,1,-1,0,0
1763470613.5569057,0,0,2,-1,-1,-1,-2,-1
1763470613.5719433,-1,-2,-3,-1,-1,-3,0,-1
1763470613.5810044,-1,-1,-2,-1,-3,-1,-1,-1
1763470613.6033041,-2,0,0,-3,-1,-2,1,-1
1763470613.633235,0,-1,-1,0,-1,0,0,-1
1763470613.6407976,-2,-2,-1,0,0,-1,-1,0
1763470613.6637774,0,-2,-2,0,-2,-1,-1,-1
1763470613.68583,-1,0,0,-1,-1,-1,-1,-1
1763470613.700672,-2,-1,-3,-2,-1,-1,-2,-2
1763470613.7233675,-1,-3,0,2,0,-1,-1,1
1763470613.7458007,-1,1,-2,-2,0,-1,-1,-1
1763470613.7602112,-1,-1,-2,-3,-1,-1,0,0
1763470613.7670376,0,1,-1,-1,-2,-2,0,0
1763470613.7832603,-1,-2,-1,0,-2,-1,0,-2
1763470613.8058984,-1,-1,-1,-2,1,0,-1,-1
1763470613.8206584,0,0,0,1,0,-2,-1,-1
1763470613.8269248,1,0,-2,-3,-3,-2,-2,0
1763470613.8432355,-1,-1,-1,-1,-2,0,0,-1
1763470613.8659692,0,-1,-2,0,-2,-1,-2,0
1763470613.880279,-1,-1,-1,-1,0,-3,-1,0
1763470613.8868794,-3,-3,-2,0,0,-1,-1,0
1763470613.9032996,-3,-1,0,-2,-1,-1,0,-2
1763470613.9258082,1,-2,0,0,-1,0,-1,-1
1763470613.9402542,-1,-1,-2,-3,0,-1,-1,0
1763470613.947776,0,-1,-2,-1,-1,0,-1,0
1763470613.9712393,-1,0,-2,0,-1,1,-1,-1
1763470613.9858289,1,0,-3,-2,-1,-1,-1,0
1763470614.0002642,-1,-2,1,3,6,5,1,0
1763470614.0069754,0,2,1,1,-1,0,-1,0
1763470614.0232596,-1,-1,0,-2,1,1,0,0
1763470614.045736,-2,-3,-2,-1,-3,-3,-2,-4
1763470614.0594308,0,-1,-2,-2,-3,-2,0,-1
1763470614.074557,-1,-1,-3,-2,-2,-2,-1,-2
1763470614.083697,-1,-2,0,1,-2,-2,-2,-1
1763470614.1058607,-1,-1,0,1,-2,-2,-3,0
1763470614.1194427,0,0,-1,-1,-2,-2,0,-3
1763470614.1283495,-1,-1,-2,0,2,-1,0,-1
1763470614.1432393,-3,-1,-2,-3,-1,0,0,-1
1763470614.165775,1,1,0,2,0,-2,0,-2
1763470614.1793923,-1,-1,-2,-2,-1,-2,0,0
1763470614.188304,-1,-1,0,-1,-1,-2,-1,-1
1763470614.2032704,-2,-2,-3,-2,-2,-3,-1,-3
1763470614.2255342,0,-1,-1,-3,0,-1,-1,-1
1763470614.2318907,0,-1,-1,-1,-3,2,0,-1
1763470614.2395246,-1,-1,2,0,0,1,0,-1
1763470614.2483125,-1,-2,-1,-3,-2,-3,-2,-1
1763470614.2633088,-1,-1,-1,-1,1,-1,-1,0
1763470614.2858646,-1,-1,-2,-2,1,-1,-1,0
1763470614.2995555,2,-1,-1,0,1,2,-1,-1
1763470614.3082602,-1,0,-3,-2,-2,0,-1,0
1763470614.3234172,-2,0,-3,-3,-5,-3,-3,-2
1763470614.3461359,-1,0,-1,-2,-2,-1,-1,-2
1763470614.3593795,0,0,1,2,1,0,-1,0
1763470614.368314,0,0,-1,-2,-1,-1,-2,0
1763470614.3831627,-3,-3,0,-3,-4,-2,-1,-1
1763470614.4057643,0,-3,0,0,-2,-2,-1,-2
1763470614.4195251,-3,0,-5,-2,-3,-3,-2,0
1763470614.4283066,-2,-1,0,0,1,0,0,-1
1763470614.4434917,-1,-3,0,0,0,-1,0,-2
1763470614.465629,0,0,0,-2,-1,-1,-1,0
1763470614.4793105,0,-1,-2,-1,1,1,0,-1
1763470614.4958205,0,-2,-4,-4,-3,-3,-1,-1
1763470614.5022464,-2,1,0,-1,1,1,0,-1
1763470614.5110157,0,-2,0,0,-2,-2,-1,0
1763470614.5257485,-1,-3,0,-2,-3,-4,1,-1
1763470614.5481744,-1,-1,-3,-2,-3,-1,-2,1
1763470614.5625641,0,-1,-1,-1,-1,0,-1,-1
1763470614.569332,-1,-1,0,0,-1,-2,-2,0
1763470614.5858862,-1,0,0,1,-2,-1,-1,0
1763470614.6082594,-2,-2,-2,-2,-1,-2,0,-1
1763470614.621937,-1,-1,-1,-2,-2,-3,-2,-2
1763470614.6316476,-2,-1,-1,-1,0,-2,-1,0
1763470614.6451833,-1,-2,-2,-4,-2,-1,-2,0
1763470614.6677716,-3,0,1,2,2,0,-1,-1
1763470614.6818733,0,0,-1,0,-1,0,1,0
1763470614.6901,-1,-2,2,-3,-1,-2,-1,0
1763470614.7050045,0,-1,-1,1,1,-1,0,-1
1763470614.7275157,-1,-1,-4,-2,-2,-2,-2,-2
1763470614.7434702,-2,-3,-17,-7,-3,-2,-1,0
1763470614.749991,-2,-15,3,-1,-2,-3,0,-2
1763470614.7650642,-17,-11,-10,-6,2,-2,-2,-3
1763470614.7877336,-1,6,14,-17,-23,-5,0,-1
1763470614.8020756,1,9,-9,1,-2,-5,-5,-3
1763470614.810457,-5,-20,-15,-30,-28,-19,-10,-5
1763470614.8250709,4,6,3,14,30,6,-3,-12
1763470614.8477473,13,-9,1,2,1,-4,1,1
1763470614.8708856,13,-1,2,21,-6,5,-4,0
1763470614.8850467,-6,1,4,22,25,1,-9,0
1763470614.90731,-8,-6,-5,9,14,-4,4,1
1763470614.9152274,0,2,-4,-16,-6,8,-5,-2
1763470614.930971,1,0,0,-29,-44,-11,-1,3
1763470614.9451263,-7,1,-1,-14,-6,-15,-27,-3
1763470614.9756858,-1,-3,2,-1,9,17,9,-3
1763470614.9902902,-1,0,1,-27,-28,-16,-1,0
1763470615.0067258,-2,-2,0,-6,5,28,6,2
1763470615.0277336,-5,-2,5,27,-15,9,1,-4
1763470615.0499222,-3,-2,-1,-1,6,3,15,1
1763470615.0649729,4,-1,-1,3,4,-3,-1,-1
1763470615.0957952,0,-3,-2,12,43,3,0,1
1763470615.1100152,-4,-5,-4,-8,-16,-36,-12,-6
1763470615.125136,5,0,-2,-4,-6,7,-5,2
1763470615.147485,-2,-1,-2,0,-3,-7,0,0
1763470615.170065,-2,0,-1,-6,-3,19,20,1
1763470615.1862524,-36,-7,-10,-21,-21,-30,-42,-102
1763470615.1925144,12,9,6,-6,-63,-54,11,5
1763470615.20751,-3,4,2,3,-24,-39,14,-22
1763470615.2383704,-19,-13,15,90,-1,23,7,-16
1763470615.2450888,12,-4,12,4,11,-13,-43,-22
1763470615.267781,10,5,4,-32,17,21,-19,22
1763470615.2983053,10,11,19,65,9,40,63,-8
1763470615.3051288,7,7,7,19,5,46,0,83
1763470615.3275273,7,127,21,37,-6,-24,-16,-20
1763470615.3500001,-26,-111,-50,-4,73,72,-11,-23
1763470615.373241,-3,-128,9,19,-9,-37,-6,-21
1763470615.387569,7,-79,-33,-59,-26,-34,-16,73
1763470615.4271514,-17,58,-47,-91,-20,-12,8,-23
1763470615.4326837,-1,29,13,-15,64,117,14,-11
1763470615.4475367,25,6,18,18,-28,53,71,9
1763470615.471615,10,2,-10,-69,-29,14,-41,-24
1763470615.48505,-2,11,14,40,17,-6,-18,4
1763470615.515845,-4,2,-6,-20,57,-48,-5,-5
1763470615.530596,3,6,-19,-68,-86,-36,-13,-10
1763470615.5452852,4,-22,-9,-46,-10,6,7,67
1763470615.5675776,10,5,-38,-14,36,-1,16,58
1763470615.5901573,-7,-27,3,31,15,27,59,15
1763470615.6064494,-9,-36,-5,-3,-60,-24,-3,-33
1763470615.627572,-20,24,10,16,8,18,-30,-87
1763470615.6504903,4,15,16,-20,-60,-60,-19,-28
1763470615.6663752,32,-14,27,26,33,-17,-18,-13
1763470615.6875236,-12,-17,-7,-8,-13,-39,-35,-29
1763470615.7100658,14,12,29,43,27,-30,-26,11
1763470615.7250206,0,7,13,-10,8,0,-8,16
1763470615.7327232,3,43,0,84,50,-28,-12,-11
1763470615.7477667,5,7,0,-7,-12,-26,23,42
1763470615.7702444,-1,-15,-21,-28,-20,-13,17,-28
1763470615.7932324,-1,8,-18,-17,-5,-1,46,0
1763470615.8076413,-5,-27,23,33,-28,35,15,25
1763470615.8381732,-9,-18,-48,78,105,57,9,90
1763470615.8534524,-33,-7,7,-46,-17,32,-21,-17
1763470615.8676417,14,-4,9,28,16,34,33,-3
1763470615.8902972,-3,-6,-2,-15,-55,-10,-21,-41
1763470615.904345,1,34,22,54,87,-10,-21,-4
1763470615.9126089,-3,-35,4,-29,-25,-5,-4,-18
1763470615.927594,-15,13,0,-9,6,0,-45,-80
1763470615.9503045,-13,-33,14,-34,-27,8,8,-26
1763470615.9732351,3,-16,3,20,41,17,9,20
1763470615.9875515,-7,14,-27,-87,-45,-19,34,41
1763470616.0182445,10,-11,-23,-41,-5,-2,3,-51
1763470616.0242543,6,-11,16,81,-43,-23,-33,13
1763470616.032516,-5,-42,-67,-55,-56,-91,-33,4
1763470616.0474985,4,8,-36,-2,20,50,16,40
1763470616.071545,-26,26,-5,74,-8,-1,11,-59
1763470616.0843165,0,-3,34,-12,43,40,-18,10
1763470616.0925062,-10,17,21,-3,-2,57,-13,-37
1763470616.1160784,30,-26,-9,-46,-41,-20,7,74
1763470616.130114,-17,26,19,-20,-28,-31,14,-8
1763470616.1442947,10,15,10,12,-21,-29,28,0
1763470616.1526148,-9,-22,-16,1,20,-25,-18,1
1763470616.1674776,-14,-7,-7,-31,23,4,-31,-48
1763470616.1901057,3,1,-33,-37,38,1,11,52
1763470616.2058108,8,-36,-3,19,-12,33,17,13
1763470616.2124987,1,32,12,-8,-7,-32,3,-25
1763470616.2275205,6,-6,-5,-14,-35,21,-28,-12
1763470616.250115,6,-43,25,16,-25,-45,-29,-45
1763470616.2658188,-10,51,-53,-60,-19,3,6,17
1763470616.2725558,-14,-9,-4,-16,-37,-9,-12,34
1763470616.2876365,2,4,8,16,-3,-32,5,25
1763470616.309885,-29,1,17,-9,-14,-41,-1,-44
1763470616.3175344,17,-11,-9,47,91,0,-5,-18
1763470616.3242486,6,-18,0,8,31,46,16,11
1763470616.3325043,-2,-22,5,-65,-35,-22,-12,-28
1763470616.3633046,8,24,-27,-49,10,19,3,-68
1763470616.3701189,14,-2,12,24,10,3,59,26
1763470616.3931856,-4,4,-45,-46,-20,14,7,-8
1763470616.4074447,1,-11,37,52,-11,-18,-19,35
1763470616.4383407,1,-26,34,3,3,-8,-37,-12
1763470616.4532447,17,17,4,52,106,-18,-17,41
1763470616.4676275,-14,-19,-7,0,-27,-33,-38,-31
1763470616.4984345,0,-23,17,38,30,-24,-23,-30
1763470616.5134213,16,-24,-4,-20,-20,-2,11,6
1763470616.5276282,-7,6,-27,-8,-21,24,-8,-38
1763470616.550122,-2,6,-9,-30,-15,-25,34,25
1763470616.5733156,-10,4,19,13,-23,2,-5,37
1763470616.5876324,-15,2,11,57,0,42,5,83
1763470616.6102452,-5,-2,10,25,39,16,-15,-12
1763470616.6324859,12,4,-5,-27,7,-32,10,0
1763470616.6402247,3,-38,4,5,-37,3,8,-3
1763470616.6479137,1,-12,18,-26,-82,20,10,-26
1763470616.6701348,-3,-6,4,14,12,11,6,-18
1763470616.6932838,-4,12,-33,11,27,6,13,25
1763470616.7073262,-4,-22,-9,-21,48,-17,-1,-50
1763470616.7151756,-1,8,27,39,33,25,0,26
1763470616.7301016,0,5,-12,-10,-13,-21,0,2
1763470616.7532418,15,7,8,39,20,-30,-14,-6
1763470616.7675116,-14,16,-23,-13,67,9,0,-71
1763470616.7901716,13,-16,36,-11,-38,17,16,23
1763470616.8132596,3,9,25,16,-26,38,2,-35
1763470616.8276021,-8,28,-2,15,-48,-76,-14,-3
1763470616.8499684,12,-2,-21,-51,-27,-38,-3,-3
1763470616.8733065,-9,-19,-19,-59,-18,20,-16,23
1763470616.8876195,-4,-21,5,-11,-3,-28,6,20
1763470616.9100108,-3,-3,15,53,48,27,52,-34
1763470616.9332511,-9,3,-7,35,22,13,4,11
1763470616.947538,23,-26,3,46,53,40,12,106
1763470616.9699664,-8,19,7,-12,-2,19,31,4
1763470616.9933202,-13,-5,-33,-39,-7,-9,-33,-31
1763470617.0069394,-1,-12,-12,-46,-31,-4,-28,-31
1763470617.0150428,-24,24,-10,-86,-54,-5,-20,-80
1763470617.030212,-6,-10,-21,23,-2,-29,12,24
1763470617.0532143,2,15,-3,-62,-12,-8,-33,-28
1763470617.0668404,-6,-16,18,23,-39,16,11,9
1763470617.0827427,-3,-12,-8,-24,-14,-7,-22,-69
1763470617.0901732,3,-12,9,22,7,-36,-2,-29
1763470617.113433,1,23,8,37,-25,15,-10,-14
1763470617.1269615,1,-17,-4,-15,14,63,37,28
1763470617.1350784,11,-16,-4,-41,-48,-10,10,58
1763470617.1501465,-4,28,-21,1,-15,-23,-9,29
1763470617.1725802,-14,-17,-6,9,3,-11,-29,-27
1763470617.1884,5,-12,13,-35,-7,9,-13,-3
1763470617.1950586,-10,8,4,-1,-19,-10,-14,-41
1763470617.2099824,1,-6,-6,-28,5,-14,-3,44
1763470617.232651,6,-10,8,-7,-19,-3,-2,-5
1763470617.2404356,-8,2,2,17,-11,-47,-10,-22
1763470617.247239,-1,-11,-15,11,4,-4,3,-8
1763470617.2553747,-10,3,-3,8,14,-9,-7,-33
1763470617.2700732,-1,-10,0,10,-46,-10,-7,46
1763470617.2924628,10,22,19,12,38,24,4,-17
1763470617.315786,18,8,-13,-41,-48,-24,5,62
1763470617.3302615,-5,-44,-29,-53,8,10,15,-29
1763470617.3608534,-10,13,2,11,47,39,-18,-21
1763470617.3757865,-11,13,2,23,1,-22,-21,-63
1763470617.3904266,-11,-27,13,12,-33,-8,2,-13
1763470617.4128175,3,-12,0,19,52,-6,0,-22
1763470617.4358985,6,-4,-3,-40,-56,-57,-16,3
1763470617.4503171,-3,-30,0,5,-24,10,3,-19
1763470617.4734702,1,18,2,20,66,43,40,50
1763470617.4959507,4,3,-9,-14,-19,3,-11,26
1763470617.509962,0,-4,7,32,-29,-8,-19,-46
1763470617.5176728,-6,-13,-6,4,-51,-14,-3,21
1763470617.5325706,19,16,12,12,7,-11,12,55
1763470617.5569775,-9,-11,-5,-18,-2,-12,-13,-1
1763470617.5700288,-14,-30,-8,24,63,-28,-24,-63
1763470617.5926266,-14,-18,1,34,8,-14,-20,-34
1763470617.6157794,11,12,2,-27,-94,-23,29,87
1763470617.6381688,2,41,-11,-48,19,27,6,68
1763470617.6526601,-8,-14,5,0,-6,-25,-2,-54
1763470617.675455,3,-26,9,24,37,42,9,4
1763470617.698415,-4,16,-8,14,4,-23,-4,-5
1763470617.7127197,-14,-35,-18,-35,-16,4,4,4
1763470617.7363381,5,-21,6,1,-2,21,-9,-28
1763470617.7500477,-16,9,4,-6,-20,-8,10,-27
1763470617.7809424,-16,-6,-3,-5,27,-17,4,-13
1763470617.7962093,3,-10,-4,-2,-29,19,2,10
1763470617.810224,21,8,9,3,-16,22,-15,17
1763470617.8327534,-9,-5,0,-5,-8,-7,-20,-14
1763470617.856147,-7,-12,-19,1,-38,17,26,32
1763470617.8702502,-6,-9,-2,2,66,-32,14,-35
1763470617.8927062,9,37,6,-1,-4,8,6,10
1763470617.9158635,3,21,17,19,26,10,-20,-55
1763470617.929318,8,-6,23,12,-75,-22,-2,59
1763470617.93754,-19,4,4,-29,-9,-24,-35,-37
1763470617.9523327,5,23,-14,-14,80,13,11,42
1763470617.9600644,1,-23,-4,-7,4,-17,-1,-39
1763470617.9755182,-16,0,-16,-47,7,5,-9,-47
1763470617.989498,2,-16,-11,-26,-19,13,9,-11
1763470617.9975932,-10,-14,16,83,28,54,-24,-44
1763470618.0125816,-5,15,-5,-10,-5,38,-12,-40
1763470618.0357678,15,3,13,51,-5,-8,4,45
1763470618.058395,-9,-3,2,3,-27,-19,-15,39
1763470618.0725348,-8,-13,1,31,37,5,-15,-57
1763470618.103216,7,-4,4,-23,-27,-20,-15,-8
1763470618.1093714,-3,-3,10,15,9,33,20,-23
1763470618.1175516,-8,0,-5,-39,-9,-15,-25,-70
1763470618.1326427,-9,-41,-5,18,-46,-32,-24,-14
1763470618.1556873,0,17,-7,18,-9,-20,8,-46
1763470618.1694427,-7,3,-8,-23,26,-16,-1,-21
1763470618.1775973,3,-22,-13,-12,15,-16,-17,-10
1763470618.192619,7,-15,0,-14,-5,-20,-14,37
1763470618.2156372,5,13,-8,-37,7,36,15,40
1763470618.229331,0,9,0,0,-53,-52,3,18
1763470618.237694,-3,-6,-5,-23,3,6,-14,-11
1763470618.2528622,2,-23,-4,20,-9,16,51,-17
1763470618.2909777,-9,-8,-16,-29,-8,1,-4,-36
1763470618.2981372,11,7,2,11,1,-8,-28,9
1763470618.3127143,16,15,3,35,77,39,9,-14
1763470618.335861,-8,-12,-18,-14,12,25,-16,23
1763470618.3582234,-2,13,17,9,26,6,-18,45
1763470618.3725328,-7,11,-9,-3,-9,-29,54,-34
1763470618.3969264,-1,-4,5,14,-24,-19,-13,15
1763470618.4257715,3,-1,4,26,30,-16,2,-17
1763470618.4409034,1,0,11,-1,-47,-20,-34,-18
1763470618.4557927,25,6,21,13,-12,23,1,74
1763470618.4783692,-8,7,15,49,-1,4,23,2
1763470618.4925318,-4,5,-3,-10,-12,37,-9,-73
1763470618.5157351,-14,-10,-17,-45,-14,-29,-5,-28
1763470618.538635,8,0,-13,-37,22,10,23,46
1763470618.568442,-8,-6,0,10,6,2,-9,-9
1763470618.5758343,6,-2,-8,-31,40,28,-28,-29
1763470618.5982182,-1,-18,-21,-18,22,-11,12,39
1763470618.6128058,-11,4,11,35,10,-41,-4,-3
1763470618.6358473,3,-18,-7,-8,-31,-27,-36,18
1763470618.6583917,6,-13,-2,42,21,-15,-14,-21
1763470618.672565,-4,-12,-2,-44,-61,-4,-20,-28
1763470618.7024302,-18,0,-10,-16,8,0,5,-70
1763470618.719677,1,-16,-27,-35,-7,-45,9,-26
1763470618.731797,-5,0,-4,-36,32,22,20,17
1763470618.75723,16,-5,-8,-68,-48,-20,-2,51
1763470618.7782464,4,9,-9,3,59,-10,6,-18
1763470618.7927084,12,16,-24,14,62,2,23,44
1763470618.8157644,-10,-23,-17,-26,-52,-30,-18,5
1763470618.8383214,6,0,17,-11,-75,26,18,31
1763470618.852723,0,6,-4,-11,-9,-5,-8,-13
1763470618.8773973,6,-9,9,-22,-19,4,15,-14
1763470618.8975632,9,17,16,4,-20,9,10,31
1763470618.9052114,4,-15,-35,-17,-7,-45,-7,45
1763470618.9119062,7,-4,22,59,36,-4,-17,-9
1763470618.9201217,-5,-7,-22,-42,33,37,-11,-28
1763470618.9352171,-6,-4,-6,-9,2,-45,-27,-29
1763470618.959179,-5,11,-1,23,63,-10,-23,-23
1763470618.9809291,-7,6,-7,-31,9,0,-12,-25
1763470618.995076,-4,-9,3,0,-10,18,7,3
1763470619.0258472,15,0,1,33,30,57,21,6
1763470619.031912,1,-7,-9,-7,-20,13,-3,9
1763470619.040007,-12,-8,-9,10,-6,1,7,-1
1763470619.0550935,-14,0,-4,-24,-20,-18,2,-14
1763470619.087274,-11,1,-7,-23,-10,-14,6,-28
1763470619.100037,-7,-2,13,-5,-27,-39,4,4
1763470619.1156027,-24,5,-11,-3,-1,26,-26,-61
1763470619.1301646,18,-6,13,19,14,14,1,47
1763470619.1382554,1,16,22,13,-31,-30,4,19
1763470619.151917,15,-22,-17,5,-15,-3,8,19
1763470619.1676147,-3,2,-1,4,-7,9,-3,-19
1763470619.1749299,6,11,7,59,2,-20,33,100
1763470619.1982052,7,4,17,-17,18,-24,-19,-42
1763470619.211958,-4,-9,-8,-21,-36,-23,-3,-22
1763470619.2200723,-8,5,6,-14,18,26,5,-50
1763470619.2352083,19,-6,-2,-25,-4,34,9,68
1763470619.2582898,8,2,-2,-21,-29,-41,19,76
1763470619.2812662,-6,0,-8,-13,16,2,8,-51
1763470619.3110225,-16,-10,-2,-22,4,46,-4,-40
1763470619.3184674,-6,6,-5,9,10,20,-17,-13
1763470619.3482835,-9,-9,-19,-45,-13,-21,-9,-21
1763470619.3550909,-15,4,12,24,0,0,-6,12
1763470619.3782656,2,-2,-1,-17,16,-3,-10,-19
1763470619.4008517,4,-5,4,6,-25,-28,-8,-33
1763470619.4150407,-10,-2,15,50,48,-2,4,-16
1763470619.4380317,5,4,-6,-29,-12,-20,-12,24
1763470619.4608831,3,-11,-1,6,-14,-28,-14,-50
1763470619.4750686,2,9,1,39,28,28,21,26
1763470619.4982908,3,-2,-2,-7,-12,-19,-29,11
1763470619.521347,-15,-6,-9,-7,3,21,30,1
1763470619.5356586,0,-2,0,24,6,3,20,-13
1763470619.55834,1,-4,0,5,11,5,-2,20
1763470619.580867,2,-2,-5,-10,-23,-3,-9,-9
1763470619.595042,9,-2,5,34,3,-2,1,-9
1763470619.642157,-5,-3,-8,-28,-12,0,5,29
1763470619.6475804,-6,-6,-4,-10,-18,-30,-18,-29
1763470619.6550465,-1,10,6,-2,5,3,-7,9
1763470619.6783955,-1,15,0,-7,10,9,6,2
1763470619.7008893,-2,1,-5,-13,2,2,-2,-18
1763470619.7151296,-6,20,-3,-8,-17,-14,-4,0
1763470619.7387683,14,15,-1,5,-58,-29,-11,5
1763470619.7682886,-12,-50,-4,-40,-74,2,-14,-9
1763470619.7752,11,-4,-16,28,61,18,10,1
1763470619.798321,-1,-4,14,-20,-29,-5,10,-6
1763470619.8210907,0,16,-5,4,26,5,-1,-3
1763470619.8350852,-3,-6,9,10,-1,-4,-4,-6
1763470619.858705,-3,-4,8,14,19,2,5,-1
1763470619.8884265,-6,5,-8,-17,3,1,-2,-2
1763470619.8961256,0,-6,-16,8,28,3,-5,0
1763470619.903611,-9,-4,-9,-4,0,-3,1,-3
1763470619.9183774,-11,5,25,4,10,3,0,-2
1763470619.9407036,10,11,9,37,13,1,0,-1
1763470619.9544656,-5,-5,-6,-11,1,6,3,-3
1763470619.9627037,-5,-1,2,-15,-8,-3,0,-2
1763470619.9784384,-5,-7,10,-1,2,-1,-6,-1
1763470620.001038,0,-2,-17,-22,-13,2,0,-2
1763470620.0234518,3,-7,-12,6,0,-2,-1,-1
1763470620.0383306,-7,6,-8,-12,-4,5,2,0
1763470620.0612292,2,-2,4,-12,-5,-4,-2,-1
1763470620.0744197,1,-1,1,2,-8,-3,-1,0
1763470620.0831428,-8,-4,3,6,7,-1,0,-1
1763470620.0971491,0,1,-6,-2,-3,-3,-2,-1
1763470620.1062298,1,3,6,4,1,4,3,0
1763470620.121027,1,-2,3,6,5,-2,0,0
1763470620.1344638,-1,-10,-11,-6,-1,6,1,-2
1763470620.1493917,2,2,-2,-7,-4,-2,0,-2
1763470620.1568766,-6,-2,0,0,-5,-2,-1,-2
1763470620.1663225,-1,0,2,0,-3,-1,-1,0
1763470620.1806226,-1,-5,-2,-11,-8,-6,-3,0
1763470620.1868756,-2,-1,-6,-10,-6,-3,-3,-3
1763470620.203326,-1,-2,1,-9,1,-1,-2,1
1763470620.216921,2,-4,3,-2,-5,0,0,-1
1763470620.2258148,5,4,4,4,1,1,-1,0
1763470620.241131,0,8,11,-3,-6,-5,-2,-1
1763470620.2633753,-3,-3,-2,1,3,-4,-2,-1
1763470620.2768955,2,-2,1,6,5,1,0,-2
1763470620.2935157,-2,0,0,-12,-6,-4,-2,0
1763470620.3009,-6,0,-7,3,6,-2,-2,-3
1763470620.3233962,1,5,5,2,0,2,1,2
1763470620.3369946,10,1,4,3,-2,-3,-1,1
1763470620.346011,-3,5,11,3,0,-3,0,0
1763470620.3609135,-6,-7,-5,0,2,5,0,-2
1763470620.3834238,-2,-1,-5,-2,-5,-7,-3,-2
1763470620.3970842,-2,1,-1,-1,-4,0,0,-1
1763470620.4062843,-3,-2,0,2,6,1,-1,-1
1763470620.4209175,-3,-2,-2,-3,-5,0,1,1
1763470620.4433093,0,-2,-5,-3,-6,-1,-2,-2
1763470620.4568794,-3,-1,-1,2,0,-2,-2,-2
1763470620.4659965,-2,-2,0,6,14,1,0,0
1763470620.4811833,-1,-2,-1,-3,-6,0,1,2
1763470620.5033062,-1,-1,0,-3,-3,-1,-1,-2
1763470620.5170279,-1,-3,0,0,0,-1,0,-3
1763470620.5259995,-2,-1,-2,-2,-3,-2,-1,-1
1763470620.540888,-2,-2,-3,-12,-3,0,-1,-2
1763470620.5632267,-2,-2,-2,0,2,0,-2,0
1763470620.5769575,-1,-2,1,4,2,0,-2,-2
1763470620.5861485,-1,0,0,4,-2,-1,-1,-1
1763470620.601029,-1,-1,-2,1,1,-2,-1,-1
1763470620.6232972,-1,0,1,4,-1,-3,-2,-1
1763470620.636986,0,0,-1,-2,0,2,2,1
1763470620.6458898,-2,-1,-3,-2,-1,3,-1,-1
1763470620.6612377,-1,0,0,-1,0,0,-1,-1
1763470620.683022,1,-2,-1,2,1,-2,-1,-2
1763470620.689446,0,-2,-3,-10,-10,-2,-2,1
1763470620.6969376,-1,-1,2,1,0,-3,-1,-1
1763470620.7059002,0,-1,1,1,-2,0,-2,-2
1763470620.7208436,1,0,-4,-13,-3,0,-1,0
1763470620.7432659,-1,-5,-2,-2,-4,-2,0,0
1763470620.7568858,-2,-1,-1,-7,-5,-1,0,-2
1763470620.766036,1,0,1,1,-1,0,-1,-1
1763470620.7815964,0,0,0,0,-2,0,0,-2
1763470620.8032982,-1,0,-1,4,3,0,-2,0
1763470620.809578,-1,-1,0,-9,-8,-1,-1,-2
1763470620.8169608,-1,-1,-2,3,2,-1,-1,1
1763470620.833421,-2,-2,-3,-6,-8,-2,-2,0
1763470620.839792,0,0,0,5,1,-3,-1,-2
1763470620.8484166,-1,-2,-5,-8,-5,-1,0,-1
1763470620.8633618,-2,-2,1,0,-2,0,-1,-1
1763470620.876846,-1,-1,1,1,0,-1,-1,-1
1763470620.8858478,0,-1,-2,-2,-1,0,-1,-2
1763470620.9008875,0,-3,-2,-1,0,-1,-1,0
1763470620.9234774,-2,1,-2,-2,-4,-1,-1,-1
1763470620.936966,1,-1,-2,-6,-6,-1,-3,-3
1763470620.9460034,0,0,-2,-11,-11,0,-3,0
1763470620.9610293,0,-3,-4,-1,1,0,-2,-1
1763470620.9832003,-2,-1,-1,2,0,-2,-1,-1
1763470620.996991,0,1,1,0,2,-2,0,0
1763470621.0060852,0,0,0,5,2,1,-1,0
1763470621.020872,-3,-4,-6,-2,1,-1,-1,-2
1763470621.0434933,-1,-1,0,-2,-3,-1,0,-1
1763470621.0732884,0,1,2,-1,-4,-1,-1,-1
1763470621.0811007,0,-3,0,-1,-1,0,0,0
1763470621.103576,-2,0,-1,0,1,0,-1,-2
1763470621.126643,1,-1,-3,1,-1,-1,-1,-1
1763470621.1416333,-2,1,-1,-4,-5,-2,0,-1
1763470621.1624422,-3,-1,-1,0,6,0,-2,-1
1763470621.1709108,-1,0,0,-2,-4,-2,-1,0
1763470621.1864488,-1,-1,-1,3,0,-1,0,-3
1763470621.2015123,-1,-2,1,-4,-2,-3,0,1
1763470621.223406,0,-1,-3,-5,-5,-1,0,1
1763470621.2458649,-2,-1,0,0,1,1,-2,-1
1763470621.2607872,-1,-1,1,1,-2,-1,-2,1
1763470621.2833188,-2,-4,-3,-1,1,0,-1,-2
1763470621.306209,0,-1,-3,-2,0,-1,0,-2
1763470621.3201542,0,-2,-1,2,-2,-3,0,-4
1763470621.326878,-1,-2,0,2,-2,-1,-1,-2
1763470621.3438666,-1,-2,-1,-2,-1,0,-2,0
1763470621.34963,-1,-2,2,12,13,-1,-1,0
1763470621.365742,0,0,-2,-3,0,0,-1,0
1763470621.3803751,-1,2,2,2,-2,1,-1,-1
1763470621.3871071,-1,-2,-1,-6,-6,-2,-2,-1
1763470621.4037046,-1,1,1,-1,-2,-2,-2,-1
1763470621.433298,1,-1,2,2,2,-1,0,0
1763470621.440082,1,-2,-1,-1,-3,0,-1,0
1763470621.4470189,1,-1,-2,-2,-2,-2,0,-1
1763470621.4633358,-2,0,-1,0,2,-1,-1,-2
1763470621.485838,-4,-2,-1,-11,-1,-3,-1,-1
1763470621.500128,-1,-2,-2,-1,-2,2,-2,-2
1763470621.5069537,0,0,0,-1,-3,-3,-1,0
1763470621.5235767,0,-2,-1,0,0,-2,0,-1
1763470621.5459218,-2,0,-1,2,1,-1,-1,0
1763470621.5601766,0,0,-1,2,-2,0,0,-1
1763470621.566918,-1,1,-1,-2,-2,-2,0,-1
1763470621.5911303,0,-2,-3,1,0,-1,-1,-1
1763470621.6059675,0,-1,0,-5,-1,-1,-1,0
1763470621.6195903,-2,-3,-3,0,-1,-2,-1,-2
1763470621.6345448,-1,-1,1,-1,1,-2,0,-1
1763470621.643403,-2,0,1,0,-1,0,0,0
1763470621.6658044,0,-1,-1,-3,-3,1,0,-2
1763470621.679463,-2,-2,-1,1,0,-2,-1,0
1763470621.6883879,-1,-2,-2,-2,1,0,1,0
1763470621.7034605,1,0,1,3,2,-1,1,-1
1763470621.7258167,-2,-2,-2,-2,-1,1,-1,-1
1763470621.739367,-1,-3,-5,-3,-2,0,-1,-1
1763470621.755827,-1,0,-1,-3,-2,0,-1,-1
1763470621.7632978,-2,-1,0,-2,-1,-1,-2,-2
1763470621.7859511,-2,0,0,1,-1,-1,-1,1
1763470621.799637,0,0,0,-1,-3,-1,-2,-4
1763470621.8087175,0,0,0,0,0,-1,0,-2
1763470621.8235881,-2,0,-2,-2,-1,-1,-1,-1
1763470621.846177,-2,-2,-1,0,-2,-2,-2,0
1763470621.8596544,0,-1,0,-1,-1,0,-2,0
1763470621.8685777,-1,0,1,-1,-3,-1,-1,-1
1763470621.8835533,-1,0,0,-2,0,1,-1,-1
1763470621.9058719,-2,-1,-3,1,-1,-2,1,0
1763470621.9200451,1,-1,1,0,-2,0,-1,-1
1763470621.9295673,-1,-1,-1,0,-2,0,-1,-1
1763470621.9445937,-2,-1,-1,0,-2,-2,-1,0
1763470621.9664016,1,-1,-2,-1,-2,-1,-2,0
1763470621.9795556,-1,-2,-1,1,-1,-1,-1,0
1763470621.9883983,0,-2,-1,0,0,-2,-2,0
1763470622.0033863,-1,-1,-2,0,0,0,1,-1
1763470622.025791,0,-1,-1,2,0,-1,0,0
1763470622.039541,-3,-3,1,0,0,-1,0,-1
1763470622.0484495,-1,-2,-1,-4,-2,0,0,0
1763470622.062669,-2,-2,-1,-2,-3,-1,-1,-1
1763470622.0694804,-1,0,0,0,-1,-2,-1,-1
1763470622.085957,0,-1,-2,-1,0,0,-1,-2
1763470622.1084006,-2,-1,-1,-2,-2,-1,-2,-2
1763470622.1234982,-1,-2,-3,-3,-2,-1,-1,-1
1763470622.1458268,-1,0,-1,-1,0,-1,-2,0
1763470622.1685693,1,0,-2,-3,-1,-2,1,-1
1763470622.1831813,-1,-1,-1,2,0,-1,-1,0
1763470622.1895337,-1,-2,1,-2,-3,-2,0,-1
1763470622.2060752,-1,-1,-2,-1,1,0,-1,-2
1763470622.2358692,0,-1,-1,-1,-1,-1,-1,0
1763470622.242618,-2,-2,0,-1,-2,-1,-1,-2
1763470622.249436,-1,0,-1,-2,-2,0,-1,0
1763470622.265773,1,0,-1,-1,-2,-1,-2,-1
1763470622.2884314,-2,1,0,-2,-2,-1,-2,-1
1763470622.3109925,-1,-1,-2,-2,-2,1,-1,-2
1763470622.325788,-1,-2,-1,1,1,-1,0,-2
1763470622.3486917,0,-1,0,1,1,-1,1,-1
1763470622.3627696,-1,0,-1,0,-3,-1,0,-1
1763470622.3695788,0,-2,0,-1,-1,-1,-1,-1
1763470622.3858554,0,-1,1,-2,-2,-1,-1,-2
1763470622.408265,-1,-1,-1,1,-1,-1,-1,-2
1763470622.422706,0,0,-1,-4,-3,-2,0,-2
1763470622.429532,-2,0,1,0,0,-2,-1,0
1763470622.445805,-3,-2,-1,-3,-2,-1,-2,0
1763470622.4689217,0,-1,-2,-1,-1,-1,-2,0
1763470622.4827805,0,-1,-1,1,-1,-1,0,0
1763470622.489438,-1,-2,-1,-1,-1,-1,-1,-2
