Timestamp,CH_1,CH_2,CH_3,CH_4,CH_5,CH_6,CH_7,CH_8
1762970725.554768,185,116,313,305,166,287,634,225
1762970725.577251,168,104,230,325,157,263,546,152
1762970725.6147583,123,71,224,419,145,243,486,157
1762970725.6372356,144,71,215,422,144,244,493,166
1762970725.6747286,154,76,243,363,129,247,531,178
1762970725.6973033,156,74,214,329,124,266,485,181
1762970725.7197604,138,71,204,305,139,266,453,154
1762970725.7572882,108,64,208,302,134,291,467,126
1762970725.7797604,82,48,136,298,123,257,443,113
1762970725.8172913,69,64,170,264,103,248,521,104
1762970725.839759,94,67,170,272,111,226,508,116
1762970725.8772542,102,61,156,280,112,242,537,133
1762970725.8997445,102,61,149,233,110,232,498,131
1762970725.9372256,71,38,90,247,111,224,599,112
1762970725.959855,74,36,94,241,105,260,535,105
1762970725.9972608,83,36,91,234,106,278,584,109
1762970726.0197372,85,41,84,234,110,269,500,105
1762970726.057224,63,39,75,165,109,245,421,73
1762970726.0797663,46,39,71,187,100,227,442,64
1762970726.1188102,36,30,65,159,82,228,418,59
1762970726.1397789,33,34,81,178,74,211,493,43
1762970726.177269,36,36,86,198,81,227,445,41
1762970726.199739,40,36,85,201,89,226,411,41
1762970726.237228,45,41,98,227,118,262,305,51
1762970726.2598405,43,41,97,196,118,268,326,50
1762970726.2972705,36,40,110,262,119,276,419,47
1762970726.319723,33,40,105,284,107,253,456,45
1762970726.3572335,41,56,86,268,98,272,504,46
1762970726.3797035,57,66,88,238,95,249,499,53
1762970726.417717,66,78,95,181,92,233,443,54
1762970726.439717,73,75,100,249,105,216,483,121
1762970726.477215,65,57,103,326,107,230,593,130
1762970726.499707,66,56,102,436,127,231,638,133
1762970726.5372195,54,60,97,415,133,211,664,86
1762970726.5598307,56,66,113,425,130,178,639,72
1762970726.5972288,59,91,122,294,116,180,474,65
1762970726.6197433,67,114,173,292,93,174,518,60
1762970726.6571977,66,128,175,292,134,214,526,57
1762970726.6797547,65,124,186,356,132,214,525,56
1762970726.7022321,63,116,175,345,136,214,589,52
1762970726.7397573,55,108,158,366,125,246,558,48
1762970726.7622628,54,105,150,362,85,221,491,47
1762970726.7997239,49,98,162,331,74,205,482,43
1762970726.8221865,48,93,165,444,75,186,421,38
1762970726.8597853,44,87,196,532,88,162,461,39
1762970726.8822439,46,90,206,559,86,182,417,37
1762970726.9197316,49,84,194,506,86,168,414,48
1762970726.942481,51,71,178,426,75,159,411,47
1762970726.9797018,55,82,170,431,78,107,483,47
1762970727.002243,56,97,166,387,86,99,490,47
1762970727.0397491,55,118,255,437,93,100,548,50
1762970727.0622113,69,142,262,394,90,98,486,52
1762970727.0997014,322,156,278,409,73,108,477,76
1762970727.1222563,357,167,266,349,62,119,528,83
1762970727.159752,390,139,209,314,71,145,492,89
1762970727.189765,375,126,208,332,70,146,497,82
1762970727.2197092,191,107,208,364,72,141,382,56
1762970727.2497637,197,103,193,359,68,133,378,54
1762970727.2797277,102,80,203,419,87,144,310,40
1762970727.302219,97,85,227,369,89,161,374,48
1762970727.3396964,72,87,220,374,95,166,411,50
1762970727.36223,76,113,242,310,79,159,440,54
1762970727.399779,83,188,334,358,125,153,384,54
1762970727.4221966,78,188,340,332,127,149,393,57
1762970727.4597366,90,195,422,381,153,130,284,52
1762970727.4822543,75,154,402,359,156,101,266,43
1762970727.5197358,73,133,359,356,157,146,274,38
1762970727.5425227,68,140,327,374,145,157,255,36
1762970727.5796998,54,117,283,411,132,201,257,35
1762970727.602254,53,120,305,463,140,209,212,32
1762970727.6247375,51,111,280,496,160,201,221,32
1762970727.6622586,47,102,276,426,170,186,238,37
1762970727.6847532,40,92,242,376,173,186,280,37
1762970727.7222307,48,89,212,371,189,159,280,37
1762970727.744748,43,72,196,385,184,147,297,35
1762970727.782206,50,92,232,435,177,148,343,39
1762970727.804768,58,118,268,414,161,164,361,41
1762970727.8425176,77,159,346,332,137,154,328,44
1762970727.864705,74,165,350,296,132,135,312,39
1762970727.9023027,66,150,336,294,137,144,432,44
1762970727.924762,50,123,306,283,142,172,441,43
1762970727.9622273,38,81,225,242,125,185,480,45
1762970727.9847453,39,83,225,208,134,194,401,43
1762970728.022195,36,71,171,170,136,197,392,38
1762970728.0447187,35,71,152,180,131,198,370,37
1762970728.082222,32,36,96,176,132,205,286,26
1762970728.1046968,34,37,102,165,105,205,269,34
1762970728.1271946,37,35,107,166,87,192,311,38
1762970728.164725,38,32,92,102,87,255,356,41
1762970728.202207,36,51,103,119,93,265,428,38
1762970728.2247324,37,56,115,156,94,272,422,35
1762970728.2621853,61,58,113,162,82,240,499,33
1762970728.2847333,76,46,102,179,75,228,494,33
1762970728.3222718,84,67,130,219,127,270,484,37
1762970728.3447616,75,73,133,218,122,258,399,38
1762970728.3821852,86,77,140,218,146,283,340,44
1762970728.4041028,84,73,148,164,108,247,272,45
1762970728.426583,90,96,162,160,107,239,303,50
1762970728.4640157,160,95,162,155,136,190,385,58
1762970728.4865618,158,90,151,138,144,199,393,57
1762970728.524002,156,44,81,132,144,180,480,69
1762970728.5465262,129,37,82,131,119,204,475,66
1762970728.5855565,76,39,83,140,81,203,536,70
1762970728.608034,72,47,100,203,87,212,527,68
1762970728.6455004,66,47,93,218,95,190,531,57
1762970728.6665375,50,45,91,216,94,166,467,46
1762970728.7054765,59,54,98,166,91,169,405,41
1762970728.728032,60,54,98,143,90,168,366,41
1762970728.7655163,58,56,99,143,99,178,439,50
1762970728.786549,52,55,89,144,111,228,466,54
1762970728.8255296,49,53,86,178,94,210,457,53
1762970728.8464932,51,56,87,187,85,221,436,54
1762970728.8689883,59,58,92,184,78,210,386,46
1762970728.9140515,57,55,101,191,56,178,403,48
1762970728.9455662,55,53,108,226,70,174,410,48
1762970728.9664958,44,50,109,238,86,194,418,47
1762970728.988971,43,54,110,238,90,216,403,46
1762970729.0264757,36,61,89,161,93,190,408,42
1762970729.0489707,37,60,85,173,100,221,410,44
1762970729.0865884,37,58,76,160,146,255,476,47
1762970729.1091516,38,63,98,172,162,268,510,47
1762970729.133005,37,54,98,174,181,287,485,45
1762970729.1539946,39,57,97,158,193,274,523,49
1762970729.1855276,38,52,100,187,171,270,601,54
1762970729.2065592,35,36,59,158,157,261,545,53
1762970729.228995,36,34,59,147,144,291,581,51
1762970729.2664988,51,103,168,184,121,266,481,52
1762970729.2889946,59,122,199,212,106,256,565,59
1762970729.3265636,74,183,264,246,96,205,572,71
1762970729.348991,78,197,315,325,114,217,677,71
1762970729.3864534,78,215,384,378,110,225,524,67
1762970729.4090962,77,191,373,400,119,251,578,74
1762970729.4480274,69,186,413,431,139,261,477,71
1762970729.4689834,90,188,395,422,141,261,562,87
1762970729.506489,100,222,453,496,160,280,540,82
1762970729.5289996,98,236,440,530,162,285,490,78
1762970729.566504,79,263,409,528,128,235,436,54
1762970729.5889957,67,246,376,522,111,221,391,46
1762970729.626498,64,210,389,388,106,166,362,44
1762970729.648988,56,162,376,331,137,175,350,40
1762970729.6864686,66,226,472,321,144,182,285,39
1762970729.709147,71,263,470,316,131,168,273,38
1762970729.7479925,64,265,438,333,132,140,302,38
1762970729.7689967,62,255,401,345,126,128,306,39
1762970729.8065293,53,207,355,351,128,87,283,34
1762970729.8290076,51,188,344,369,118,78,288,32
1762970729.8665206,38,131,278,355,311,77,176,31
1762970729.888964,38,121,247,354,334,75,182,32
1762970729.9265041,48,121,195,320,337,77,210,34
1762970729.9489686,49,112,174,320,308,91,198,33
1762970729.986456,62,129,215,225,118,81,200,31
1762970730.0089946,52,110,202,242,100,85,196,32
1762970730.0465183,66,131,258,343,101,99,153,35
1762970730.0690322,69,130,277,339,114,124,138,41
1762970730.1080673,60,112,244,359,166,130,294,44
1762970730.1289768,50,89,191,318,164,133,298,43
1762970730.1664693,34,49,127,260,143,135,404,43
1762970730.188964,33,37,103,201,121,143,353,46
1762970730.211481,32,30,97,149,78,173,432,50
1762970730.249005,35,43,102,154,62,168,401,49
1762970730.287999,47,53,104,195,62,162,378,48
1762970730.3090293,49,64,105,226,62,130,332,45
1762970730.348015,48,61,111,251,53,102,419,44
1762970730.368997,44,59,120,281,59,94,417,40
1762970730.4079697,47,68,183,306,76,103,419,43
1762970730.4289527,45,64,183,309,76,112,428,46
1762970730.4515119,45,67,181,291,83,108,355,45
1762970730.4889953,39,50,151,281,68,130,408,47
1762970730.5115092,39,54,141,278,62,129,366,44
1762970730.5490124,60,109,244,346,78,134,415,44
1762970730.5715175,65,143,310,324,77,118,369,35
1762970730.610509,70,170,356,347,75,121,437,40
1762970730.6314752,67,167,334,278,72,129,399,40
1762970730.6689453,46,111,232,266,53,145,447,39
1762970730.6914358,41,70,175,246,51,154,386,38
1762970730.7290323,32,48,129,190,40,146,471,40
1762970730.7515075,32,43,112,177,45,146,492,42
1762970730.7890067,27,32,98,159,49,122,372,37
1762970730.8115416,27,30,70,131,50,129,336,35
1762970730.8490007,30,31,65,151,66,154,338,41
1762970730.8789937,30,31,65,160,79,187,340,40
1762970730.9090016,31,33,90,233,93,234,383,48
1762970730.9314966,28,34,94,292,93,249,371,44
1762970730.9689684,26,31,89,266,98,250,314,41
1762970730.9930882,25,35,89,269,93,228,325,34
1762970731.029003,28,45,101,221,83,167,262,28
1762970731.0514934,29,47,115,236,69,122,261,29
1762970731.0757813,32,48,117,241,71,126,291,29
1762970731.1114776,33,39,98,219,90,141,337,36
1762970731.1489756,32,36,78,184,92,212,346,39
1762970731.171494,32,38,89,231,109,216,317,39
1762970731.2090726,29,32,79,201,387,330,346,39
1762970731.2315235,33,40,80,209,438,329,402,44
1762970731.2690232,30,37,64,143,451,337,502,47
1762970731.2914443,32,39,58,140,445,399,508,50
1762970731.3290145,27,35,62,145,200,423,578,46
1762970731.3514364,28,36,77,175,195,438,583,49
1762970731.3822327,30,37,77,184,182,446,607,54
1762970731.4115264,35,37,77,177,182,442,494,55
1762970731.4340189,36,35,76,213,168,380,569,63
1762970731.4714642,38,47,69,228,162,346,459,57
1762970731.4939764,44,49,71,252,156,311,440,57
1762970731.5315094,40,61,68,219,131,197,436,48
1762970731.5539815,38,66,72,200,118,217,436,45
1762970731.5914867,31,61,66,154,103,198,545,47
1762970731.6139948,33,63,70,127,91,196,523,48
1762970731.651486,38,65,84,150,80,147,588,54
1762970731.6739655,39,65,89,168,81,158,529,50
1762970731.7114882,41,56,104,285,77,178,519,56
1762970731.7339873,42,65,119,325,98,177,493,54
1762970731.7714946,40,82,152,316,124,168,378,49
1762970731.793989,41,90,161,320,134,182,381,50
1762970731.8315077,39,101,152,244,119,178,323,40
1762970731.8621933,34,91,158,267,112,169,314,37
1762970731.891542,38,101,208,289,105,124,339,39
1762970731.9140253,40,97,227,310,99,97,345,41
1762970731.9514732,34,81,209,347,95,110,300,39
1762970731.9739752,40,97,210,420,118,109,321,38
1762970732.0114853,34,83,174,481,135,106,306,32
1762970732.0339777,33,92,180,462,145,112,318,30
1762970732.0714867,33,84,160,368,119,79,310,32
1762970732.1014616,35,82,153,355,107,78,320,32
1762970732.131474,34,77,123,399,113,103,432,42
1762970732.1539533,30,77,159,438,132,116,402,42
1762970732.1914506,38,79,196,429,197,191,403,46
1762970732.2139657,41,82,203,439,220,193,298,37
1762970732.251423,40,79,201,370,206,199,269,35
1762970732.2739942,32,82,184,323,193,182,249,33
1762970732.3114724,33,89,244,277,204,153,219,28
1762970732.3339686,34,84,253,268,204,150,227,29
1762970732.3564773,41,95,281,334,235,147,195,31
1762970732.393949,49,105,284,423,251,180,193,31
1762970732.4165163,48,105,283,435,250,174,195,32
1762970732.45553,43,111,276,420,214,159,208,29
1762970732.4764934,43,104,264,411,158,99,196,27
1762970732.515542,32,82,211,339,120,104,198,27
1762970732.5364895,35,76,185,310,109,102,204,28
1762970732.574006,34,62,169,348,93,103,155,27
1762970732.5964773,40,66,177,355,85,102,98,25
1762970732.6339548,43,66,192,388,93,83,138,24
1762970732.6564212,45,70,185,411,91,82,144,23
1762970732.6939752,42,68,161,375,85,78,179,25
1762970732.7164435,39,52,131,376,85,74,181,24
1762970732.753942,32,45,106,326,78,72,151,25
1762970732.7764556,32,45,98,322,79,56,139,26
1762970732.8214822,28,45,109,284,85,53,135,26
1762970732.8514788,28,41,137,276,106,84,178,28
1762970732.8739858,28,45,155,302,140,134,166,31
1762970732.8964746,29,44,169,287,142,138,176,31
1762970732.9354863,26,40,167,299,147,147,176,31
1762970732.956476,26,40,169,302,152,141,189,35
1762970732.9939754,48,59,166,353,144,272,229,40
1762970733.0164738,52,65,151,360,152,351,280,49
1762970733.0539484,58,74,206,392,156,394,274,51
1762970733.0764503,57,72,193,373,152,408,289,52
1762970733.11396,45,56,226,381,162,273,187,41
1762970733.1364264,36,44,199,386,167,310,198,43
1762970733.1739535,38,45,196,403,187,271,174,41
1762970733.1964593,41,48,180,383,189,284,167,43
1762970733.2339957,39,45,131,389,144,206,159,38
1762970733.2564528,39,44,129,403,147,225,196,41
1762970733.2789545,39,44,134,413,173,247,191,40
1762970733.3164384,32,37,111,386,192,231,217,46
1762970733.3389564,32,39,112,357,207,245,213,44
1762970733.376539,32,48,125,413,182,197,193,41
1762970733.3989503,40,50,114,437,187,207,191,41
1762970733.437947,45,58,135,466,175,178,198,37
1762970733.4590085,43,55,133,503,175,222,188,42
1762970733.4964492,42,59,162,525,175,227,231,38
1762970733.5189514,37,52,148,536,182,225,274,39
1762970733.5564754,38,50,144,516,182,178,314,36
1762970733.578969,39,48,127,458,199,176,321,37
1762970733.6164558,34,42,120,488,170,176,323,37
1762970733.6389558,36,41,123,474,155,172,284,36
1762970733.6839898,36,38,113,453,109,166,256,39
1762970733.7214332,40,42,108,390,124,168,412,62
1762970733.7590048,132,59,114,317,126,255,523,247
1762970733.7964573,154,69,127,333,123,286,535,277
1762970733.818952,154,67,132,323,112,277,457,276
1762970733.8564844,90,53,122,382,121,222,388,148
1762970733.8872566,47,50,122,407,119,222,393,96
1762970733.916486,52,55,152,571,199,242,356,90
1762970733.938998,60,61,158,559,222,277,339,88
1762970733.976516,56,60,155,541,219,320,413,90
1762970734.000515,58,64,143,528,209,320,419,90
1762970734.0379784,41,78,125,330,137,276,407,63
1762970734.0752742,42,80,130,324,134,273,482,57
1762970734.0966103,41,100,178,304,146,245,415,52
1762970734.1271698,42,101,197,367,142,241,432,51
1762970734.1579437,46,122,234,432,140,195,454,51
1762970734.187131,44,121,221,404,124,176,486,50
1762970734.2164407,44,130,296,347,107,168,445,50
1762970734.2403967,38,112,300,368,122,148,377,45
1762970734.269668,40,110,303,347,142,173,347,45
1762970734.2989473,71,108,310,553,255,203,447,84
1762970734.3214407,72,104,291,596,273,234,446,89
1762970734.359024,75,132,338,606,267,221,462,95
1762970734.3814564,57,126,314,573,228,207,460,67
1762970734.4039392,47,123,296,503,165,182,408,60
1762970734.4414423,42,101,214,444,142,142,441,47
1762970734.4639528,40,134,200,427,124,167,424,42
1762970734.4870899,49,132,206,394,124,165,352,38
1762970734.5179455,49,130,182,330,125,170,317,45
1762970734.547195,54,139,195,352,119,171,364,49
1762970734.569604,59,127,207,358,107,141,415,52
1762970734.6004512,82,133,208,343,116,151,408,61
1762970734.629643,317,132,202,337,127,162,410,71
1762970734.6590161,627,96,169,475,183,176,405,84
1762970734.6814294,761,106,182,473,196,168,395,98
1762970734.718936,752,106,180,486,209,189,451,116
1762970734.7414215,629,109,189,446,208,187,411,117
1762970734.763962,547,91,184,364,220,182,372,109
1762970734.8014405,255,67,217,518,230,158,393,90
1762970734.8240216,211,64,220,542,222,150,395,78
1762970734.861458,137,63,208,516,175,152,490,74
1762970734.9071379,73,58,137,325,135,157,407,53
1762970734.9364126,60,51,92,235,124,146,388,66
1762970734.96045,56,49,95,230,131,132,295,67
1762970734.9814067,54,48,114,227,145,116,290,65
1762970735.0189352,48,49,114,307,225,121,383,74
1762970735.0414345,47,61,167,371,404,129,397,55
1762970735.0789511,39,60,180,427,416,131,460,54
1762970735.1014292,56,59,178,428,426,125,457,57
1762970735.1389446,94,43,123,293,213,141,443,63
1762970735.1614277,119,42,98,182,190,151,451,69
1762970735.1839392,124,49,96,167,180,144,449,76
1762970735.221439,205,71,143,247,136,142,542,68
1762970735.2440493,226,84,146,255,122,130,558,78
1762970735.2814484,329,181,225,447,101,128,583,86
1762970735.3039403,314,186,221,443,98,125,494,92
1762970735.3414361,282,183,256,528,92,126,503,91
1762970735.363948,143,130,241,518,94,120,473,80
1762970735.401422,152,104,195,427,101,106,392,68
1762970735.423939,218,143,197,413,99,105,402,55
1762970735.461475,284,200,176,326,78,109,351,66
1762970735.483953,288,202,175,286,74,115,401,68
1762970735.5213907,278,234,126,233,80,151,410,74
1762970735.5440435,237,227,136,223,81,152,428,71
1762970735.5814028,235,204,199,299,86,188,458,99
1762970735.6039522,198,157,202,308,87,210,455,105
1762970735.6413977,160,128,197,317,74,203,466,105
1762970735.663953,147,105,155,255,81,252,423,90
1762970735.7014174,138,86,155,332,83,267,522,98
1762970735.723996,394,86,156,339,103,305,540,152
1762970735.7614648,436,89,146,323,153,380,523,152
1762970735.7839391,442,79,82,223,201,466,562,149
1762970735.8213794,256,70,106,232,265,542,528,82
1762970735.8439505,169,60,113,280,276,542,525,67
1762970735.881452,123,76,189,402,259,487,448,78
1762970735.9039638,97,69,186,492,229,459,506,80
1762970735.9414043,67,72,203,518,205,404,520,83
1762970735.9639678,64,75,212,574,245,433,533,83
1762970736.0013912,51,72,175,550,221,350,554,67
1762970736.0239491,55,93,191,550,217,336,496,63
1762970736.0616527,57,102,211,527,208,381,581,70
1762970736.0840096,62,111,217,441,215,390,485,66
1762970736.106398,58,110,227,418,214,387,472,62
1762970736.1439567,54,95,211,360,151,295,496,73
1762970736.1664243,50,81,190,332,150,261,441,67
1762970736.2039602,50,67,154,341,156,278,404,71
1762970736.2346222,50,67,153,325,159,251,424,68
1762970736.2639594,51,103,214,304,170,232,387,53
1762970736.2864418,51,105,217,310,171,233,428,52
1762970736.3239522,44,95,210,413,169,207,391,44
1762970736.3464365,43,84,160,413,233,223,390,43
1762970736.3839478,54,86,177,463,370,207,420,57
1762970736.4064236,56,99,237,524,382,196,426,58
1762970736.4440417,75,125,241,559,394,226,385,68
1762970736.4663742,75,121,243,549,333,210,332,67
1762970736.503954,104,109,191,505,285,252,321,113
1762970736.5263903,125,107,182,447,254,238,325,119
1762970736.5640016,125,107,182,411,236,228,259,115
1762970736.586393,118,103,175,315,212,200,260,110
1762970736.6239486,64,103,175,339,188,230,229,51
1762970736.6546285,57,115,219,441,162,218,253,46
1762970736.6839483,58,102,220,459,250,219,318,53
1762970736.7063975,58,118,220,422,249,168,318,52
1762970736.7439704,48,99,196,310,290,138,320,53
1762970736.766433,46,109,201,264,272,122,341,53
1762970736.7895799,58,131,202,278,210,113,306,40
1762970736.82639,64,114,171,205,128,106,360,50
1762970736.8639789,62,104,149,343,116,114,351,52
1762970736.8864331,54,82,137,339,108,106,336,54
1762970736.9238796,62,75,150,439,122,118,352,62
1762970736.9464242,67,76,150,430,115,135,397,72
1762970736.9838722,73,74,153,402,122,145,397,75
1762970737.0146155,66,72,153,416,128,155,414,78
1762970737.04392,59,75,149,305,110,141,411,61
1762970737.0664642,98,76,136,258,91,134,425,69
1762970737.0889494,142,108,127,213,86,151,523,89
1762970737.1263816,306,443,163,175,86,168,600,140
1762970737.1488705,408,466,232,276,80,182,620,145
1762970737.186396,407,474,248,304,98,184,650,165
1762970737.2089682,485,298,233,303,90,175,758,212
1762970737.246442,486,204,217,272,93,196,752,247
1762970737.268996,682,227,221,259,96,323,870,281
1762970737.3064215,665,217,222,241,93,361,685,246
1762970737.328949,621,219,230,239,104,392,681,246
1762970737.3664281,376,189,213,202,131,401,614,241
1762970737.3889523,314,201,214,206,159,429,599,256
1762970737.4345796,379,189,160,152,275,465,702,244
1762970737.4639268,350,144,175,261,279,520,1002,212
1762970737.4864259,331,130,268,341,305,620,1004,182
1762970737.5089772,194,108,281,357,301,602,979,162
1762970737.546378,116,102,312,381,255,660,938,139
1762970737.5688832,102,102,296,334,263,642,634,98
1762970737.6063895,109,84,190,286,238,556,694,97
1762970737.6288805,107,84,200,358,251,449,572,87
1762970737.6664464,112,67,150,515,253,387,443,216
1762970737.6889758,104,57,142,516,232,314,364,228
1762970737.7346146,102,49,121,498,244,389,490,265
1762970737.763951,89,46,127,559,309,444,534,195
1762970737.7864463,73,52,157,584,357,474,566,183
1762970737.8089852,67,62,181,598,360,482,552,148
1762970737.83205,60,66,191,616,351,429,440,122
1762970737.8689442,50,67,183,503,282,374,435,88
1762970737.906434,40,57,138,564,241,364,413,71
1762970737.9289463,38,53,131,523,242,326,342,68
1762970737.9663959,38,51,150,541,241,277,306,51
1762970737.9889474,41,56,166,485,234,270,310,55
1762970738.0120733,43,61,177,502,218,249,298,56
1762970738.048945,47,83,176,501,225,329,462,56
1762970738.0720448,55,96,202,626,374,401,455,69
1762970738.1089544,70,132,265,752,513,607,483,73
1762970738.1320949,74,133,273,776,511,611,356,79
1762970738.1688783,69,124,255,705,424,569,361,73
1762970738.192298,54,105,195,584,380,512,363,70
1762970738.2288787,49,97,194,659,321,365,338,61
1762970738.2521112,52,99,250,691,304,328,356,56
1762970738.2895777,48,104,271,719,258,270,370,51
1762970738.3120728,50,105,281,674,252,281,332,45
1762970738.3489451,39,113,222,613,215,248,228,34
1762970738.3720765,38,100,199,570,199,216,209,28
1762970738.408986,42,95,192,543,191,194,353,35
1762970738.432069,45,98,210,485,179,185,354,38
1762970738.4689481,53,108,247,383,160,178,456,51
1762970738.4921114,48,119,238,403,175,174,455,57
1762970738.5288844,44,114,210,274,219,144,417,57
1762970738.5520957,42,118,225,302,256,114,388,55
1762970738.5888743,39,120,188,296,268,125,286,41
1762970738.6120934,41,123,188,346,226,129,268,42
1762970738.6488674,43,119,199,364,185,144,333,43
1762970738.671869,44,116,177,335,121,127,385,45
1762970738.708897,37,98,171,258,118,122,436,46
1762970738.732088,34,92,142,269,109,119,449,46
1762970738.7688413,31,84,128,241,108,152,427,40
1762970738.7913356,35,68,130,248,114,152,384,47
1762970738.828879,41,66,121,216,106,244,404,53
1762970738.851397,40,50,150,264,119,270,408,54
1762970738.8888874,41,54,165,282,103,284,501,58
1762970738.9113827,42,59,166,275,100,244,465,59
1762970738.9489486,40,64,139,241,73,224,491,58
1762970738.9714181,37,59,131,272,74,222,464,57
1762970738.994557,40,58,129,322,79,180,397,57
1762970739.0313652,45,42,124,323,71,130,407,62
1762970739.0545905,47,37,103,310,72,124,409,61
1762970739.0913599,50,43,121,219,63,140,446,56
1762970739.1146038,51,41,143,226,65,151,494,61
1762970739.1513693,50,47,151,223,72,140,514,58
1762970739.1745667,53,50,140,237,74,149,525,58
1762970739.2113574,60,53,136,244,89,176,483,59
1762970739.2345781,66,60,136,256,84,190,478,61
1762970739.271334,57,55,140,213,90,189,457,70
1762970739.2946064,56,52,118,239,79,189,472,72
1762970739.3313553,54,44,116,242,85,176,459,64
1762970739.354553,53,41,102,234,84,213,393,63
1762970739.3914065,54,53,95,172,87,200,338,53
1762970739.4145577,49,56,98,193,113,226,364,52
1762970739.451382,51,56,99,175,127,221,432,58
1762970739.4745467,44,43,92,165,157,294,487,55
1762970739.5114353,39,38,73,178,166,307,602,62
1762970739.534517,36,36,63,177,170,317,581,61
1762970739.5713687,38,35,59,177,157,405,689,62
1762970739.5945828,37,37,44,158,189,414,605,63
1762970739.631385,40,48,64,130,190,446,697,58
1762970739.6545691,44,57,70,133,195,492,707,71
1762970739.6845696,48,66,79,132,207,486,680,84
1762970739.7145722,54,62,75,170,214,575,660,94
1762970739.7513487,64,68,120,182,223,677,654,95
1762970739.7746077,62,65,125,195,233,669,636,99
1762970739.811361,55,66,137,185,207,631,693,109
1762970739.8345332,50,61,109,161,203,643,678,113
1762970739.8795273,38,78,126,234,167,478,574,93
1762970739.9170716,45,108,182,268,156,398,488,77
1762970739.9545553,69,174,253,316,123,348,513,78
1762970739.9770374,70,181,272,282,115,314,561,73
1762970740.014523,66,168,239,286,112,294,488,66
1762970740.0370767,62,166,227,274,120,228,467,59
1762970740.0745478,51,119,136,329,120,226,432,59
1762970740.0970225,52,117,126,351,120,228,450,59
1762970740.1345482,52,110,116,398,100,214,650,67
1762970740.1570845,53,77,160,467,109,213,635,72
1762970740.1945531,59,92,198,469,110,191,598,71
1762970740.2170308,54,94,198,453,106,164,525,70
1762970740.254528,51,97,190,480,127,209,389,51
1762970740.2772884,55,101,193,458,128,213,383,52
1762970740.3145487,68,106,193,443,132,210,533,62
1762970740.3370342,67,113,207,386,121,152,531,63
1762970740.3745239,59,89,213,425,83,200,592,62
1762970740.3970804,61,113,265,427,95,285,717,70
1762970740.4338434,87,135,391,411,127,361,905,196
1762970740.4570386,90,136,416,450,138,392,947,204
1762970740.4938903,89,116,393,503,158,430,876,203
1762970740.5170486,70,97,339,510,156,422,736,143
1762970740.5538776,59,56,192,395,143,373,697,90
1762970740.577057,61,47,150,383,142,409,668,91
1762970740.6220794,56,37,124,345,121,336,654,71
1762970740.6513462,44,40,117,349,102,354,565,57
1762970740.6738873,40,40,114,347,101,266,543,52
1762970740.7045233,36,41,120,352,93,295,533,54
1762970740.7338333,37,37,102,301,99,315,559,56
1762970740.7568023,38,39,102,273,97,351,548,52
1762970740.7939358,41,37,92,242,97,337,537,53
1762970740.8170495,39,38,91,188,85,313,425,63
1762970740.8395195,37,40,94,187,87,314,366,61
1762970740.8770556,39,35,68,183,71,249,434,63
1762970740.8995862,33,35,64,179,60,250,486,66
1762970740.937035,36,40,89,178,69,228,574,59
1762970740.9595597,38,44,102,196,75,213,587,67
1762970740.99704,44,42,106,204,77,188,473,62
1762970741.0195837,44,37,96,202,73,165,502,54
1762970741.0570776,43,34,89,179,57,187,430,48
1762970741.079547,44,37,88,193,52,187,443,48
1762970741.1170254,42,36,68,175,53,229,410,49
1762970741.1394925,39,35,64,162,59,221,421,41
1762970741.1774826,35,38,75,208,75,247,364,39
1762970741.1995463,35,36,75,206,84,242,438,45
1762970741.237031,43,38,90,346,104,278,544,58
1762970741.2595093,47,41,103,374,137,295,578,63
1762970741.2970836,90,46,121,407,147,308,576,66
1762970741.3195581,92,45,117,399,143,278,527,65
1762970741.3570611,101,57,104,412,101,247,478,87
1762970741.3794982,101,56,73,361,94,234,594,92
1762970741.424552,69,59,70,349,88,238,624,88
1762970741.453822,71,41,53,184,67,191,700,90
1762970741.4770348,78,40,45,140,61,180,619,92
1762970741.4995005,79,40,49,164,72,195,682,107
1762970741.5370123,67,49,63,185,103,193,511,86
1762970741.559559,62,50,77,196,106,195,510,85
1762970741.5970445,44,47,104,273,149,177,508,63
1762970741.6195574,37,48,123,285,150,211,505,59
1762970741.6570058,39,58,147,302,165,212,557,58
1762970741.679553,40,58,140,249,126,201,434,47
1762970741.7170541,45,88,202,331,119,177,495,62
1762970741.7397969,43,92,208,349,103,166,489,61
1762970741.777016,53,88,199,403,58,140,479,66
1762970741.8002095,50,79,190,410,53,139,473,53
1762970741.8220482,52,58,135,411,52,136,403,54
1762970741.859635,46,65,154,465,65,150,461,59
1762970741.8820364,48,91,195,486,68,142,444,56
1762970741.919274,51,94,202,463,72,103,481,54
1762970741.9420788,52,99,208,410,74,123,496,54
1762970741.979529,49,66,177,416,66,115,409,52
1762970742.0020473,45,63,174,394,59,113,437,49
1762970742.0395496,41,60,180,408,60,83,375,48
1762970742.0620701,45,60,174,328,67,111,342,43
1762970742.0995638,50,69,193,421,82,135,425,40
1762970742.1220157,67,74,198,405,88,136,448,50
1762970742.159504,69,68,179,393,78,166,489,45
1762970742.1820228,73,70,164,394,81,195,405,50
1762970742.2195292,55,49,128,291,64,202,393,46
1762970742.2420475,46,50,152,267,69,214,389,49
1762970742.279549,38,46,161,351,78,158,368,45
1762970742.3020692,38,47,158,356,101,160,318,38
1762970742.339524,33,44,129,345,130,213,320,37
1762970742.3620038,39,44,120,338,124,207,325,41
1762970742.399502,37,41,121,291,118,245,304,43
1762970742.4220252,39,41,123,289,98,238,287,40
1762970742.4595282,37,42,130,294,84,216,345,43
1762970742.4820023,39,42,136,350,80,164,340,40
1762970742.5195065,40,50,120,373,103,259,363,42
1762970742.5420778,38,55,133,389,107,271,382,38
1762970742.5795228,36,58,139,381,142,288,329,34
1762970742.6019948,34,63,177,380,138,240,306,34
1762970742.6470473,32,64,191,438,150,157,189,30
1762970742.6764412,32,62,192,448,141,212,182,29
1762970742.699549,32,60,159,425,149,262,183,29
1762970742.7220213,30,58,155,409,156,271,180,28
1762970742.7444825,29,50,152,433,150,276,150,27
1762970742.7820241,35,54,182,490,149,238,152,32
1762970742.804504,36,53,175,493,135,228,160,33
1762970742.8420928,37,50,189,534,118,214,163,34
1762970742.8645165,34,48,189,551,126,209,162,34
1762970742.902017,28,49,186,533,109,162,117,30
1762970742.924525,28,53,191,536,146,170,132,31
1762970742.963574,24,53,152,443,149,194,193,32
1762970742.9845343,25,50,127,346,147,197,198,30
1762970743.0220492,27,47,120,295,117,204,212,30
1762970743.0445359,27,41,106,259,104,227,176,27
1762970743.0820446,26,38,98,222,113,204,224,30
1762970743.1045017,27,40,109,164,112,207,230,28
1762970743.1420846,25,31,101,137,110,223,213,31
1762970743.1645322,25,31,100,154,112,226,255,28
1762970743.2020295,24,28,77,194,81,239,224,30
1762970743.224506,24,26,81,199,89,230,228,29
1762970743.2470274,25,28,98,224,85,203,245,28
1762970743.2845051,25,28,104,244,90,190,235,29
1762970743.3220124,30,30,113,227,96,159,238,30
1762970743.3445697,28,28,101,224,93,166,218,30
1762970743.367007,31,32,105,243,77,174,230,32
1762970743.4044774,34,39,123,225,82,187,263,38
1762970743.4420636,37,41,115,225,128,190,286,40
1762970743.4645367,41,51,146,242,129,206,317,42
1762970743.502003,38,52,151,255,129,206,260,39
1762970743.5245,42,54,158,263,122,187,257,38
1762970743.5619724,36,62,211,235,87,187,272,38
1762970743.5920455,39,61,206,253,92,180,290,40
1762970743.622006,40,64,201,245,97,209,287,37
1762970743.6445394,44,61,183,227,129,205,231,34
1762970743.6670337,42,48,120,198,135,203,224,33
1762970743.7045026,37,46,131,144,130,230,223,32
1762970743.7270498,37,42,131,143,121,238,362,35
1762970743.7644968,32,36,119,195,69,218,381,36
1762970743.786985,31,35,106,298,54,220,390,35
1762970743.8095849,32,37,106,297,64,190,450,33
1762970743.8470068,29,36,98,288,74,155,310,28
1762970743.8845623,29,41,121,272,74,134,407,29
1762970743.9070323,28,41,118,266,65,139,361,33
1762970743.9445736,26,38,118,271,54,109,372,41
1762970743.967006,26,40,109,253,54,99,430,43
1762970744.0045404,32,35,77,219,73,79,356,46
1762970744.0269861,33,35,80,223,79,103,376,45
1762970744.0645359,38,37,76,230,92,114,402,43
1762970744.0869942,35,37,78,218,90,118,412,44
1762970744.1245055,35,48,87,199,88,112,447,47
1762970744.1469781,36,53,81,160,78,116,431,46
1762970744.1845274,43,79,154,176,66,108,533,51
1762970744.2069933,41,84,174,175,57,103,532,53
1762970744.2445147,37,89,195,165,49,73,529,50
1762970744.2669847,37,118,261,287,53,76,544,51
1762970744.3044755,37,139,264,350,65,93,434,47
1762970744.32703,46,166,295,359,68,103,454,48
1762970744.364499,51,196,321,352,76,126,427,44
1762970744.3869998,55,221,337,378,80,127,389,44
1762970744.4244876,56,261,419,389,76,130,390,45
1762970744.4470057,58,247,395,380,75,122,384,47
1762970744.484505,67,255,406,339,84,101,324,49
1762970744.507032,71,247,394,402,87,97,307,42
1762970744.5445194,87,284,412,473,90,60,211,43
1762970744.5670264,91,307,456,432,113,124,210,45
1762970744.589954,89,297,470,429,127,158,232,43
1762970744.6270394,88,321,516,338,130,173,291,45
1762970744.6495004,77,300,458,280,128,170,326,39
1762970744.6869698,70,289,422,282,73,91,302,37
1762970744.7095683,82,304,489,306,80,74,277,40
1762970744.7470093,100,318,522,333,87,53,209,46
1762970744.7694855,96,307,542,322,82,44,204,46
1762970744.806986,96,324,412,294,79,42,221,44
1762970744.8301654,88,291,389,280,66,35,152,36
1762970744.867006,66,211,240,215,71,85,175,31
1762970744.8894968,47,107,183,186,69,101,162,30
1762970744.9269965,38,50,149,199,75,114,212,30
1762970744.94955,37,50,148,205,76,101,217,34
1762970744.9870157,31,56,195,304,88,93,234,35
1762970745.0095177,31,54,181,279,82,90,235,34
1762970745.0469801,32,56,161,285,83,95,228,36
1762970745.069501,36,48,123,220,67,86,212,33
1762970745.1070056,35,43,92,254,63,93,216,33
1762970745.129534,37,42,86,246,71,96,191,34
1762970745.1669798,32,40,76,209,74,96,233,33
1762970745.1895337,35,35,81,203,70,99,230,39
1762970745.2270236,35,36,83,206,71,98,223,41
1762970745.2569652,33,34,79,196,72,97,230,43
1762970745.2869802,26,30,75,161,63,85,236,37
1762970745.3094823,25,37,91,147,48,69,262,34
1762970745.3470485,27,36,89,149,54,87,261,33
1762970745.369483,27,36,86,143,57,81,250,31
1762970745.391268,29,37,93,116,55,84,265,36
1762970745.428768,30,29,68,112,48,66,273,35
1762970745.4512706,28,30,70,114,46,64,305,34
1762970745.4887416,27,26,48,131,56,61,315,35
1762970745.5112505,26,28,48,130,57,68,321,33
1762970745.5503063,27,28,58,152,73,88,365,39
1762970745.5712984,27,29,67,152,74,93,513,59
1762970745.6177998,27,30,88,184,80,115,587,63
1762970745.64776,27,34,98,213,76,104,586,63
1762970745.6703072,26,36,99,242,81,102,481,46
1762970745.6912997,27,34,95,246,89,99,514,42
1762970745.7302725,31,40,104,333,114,138,479,48
1762970745.7588055,36,50,111,336,113,151,537,50
1762970745.7903073,47,118,192,448,110,173,480,54
1762970745.8112915,46,120,192,415,101,175,464,54
1762970745.8503332,45,131,279,453,103,191,426,48
1762970745.8713148,44,150,320,401,110,198,443,48
1762970745.9103024,52,152,341,350,124,187,498,50
1762970745.9313054,51,154,333,323,144,186,507,51
1762970745.953774,54,165,307,309,146,191,585,55
1762970745.991261,42,170,314,383,142,190,470,48
1762970746.0137784,57,180,296,482,140,196,507,48
1762970746.0512652,76,193,350,529,112,161,373,52
1762970746.0738232,89,240,387,551,120,162,375,55
1762970746.111305,105,349,588,482,106,142,336,61
1762970746.1337457,115,418,636,469,117,126,301,64
1762970746.1712477,110,420,671,409,99,121,285,57
1762970746.1937697,109,421,647,404,103,118,246,54
1762970746.231299,66,254,545,466,89,107,270,38
1762970746.2552812,56,226,475,468,86,100,265,39
1762970746.2912567,80,225,442,481,91,92,238,36
1762970746.3137736,140,244,393,444,89,133,310,36
1762970746.3377576,164,244,325,357,83,155,308,36
1762970746.3737345,166,204,293,274,71,161,333,35
1762970746.4112444,109,143,202,295,77,131,372,33
1762970746.433741,80,127,190,284,82,101,379,40
1762970746.4712896,72,100,174,288,98,108,402,43
1762970746.4937952,62,82,160,300,97,107,384,44
1762970746.5312932,47,48,175,365,94,120,333,37
1762970746.561276,60,51,195,432,99,120,339,35
1762970746.5912654,62,50,192,409,83,125,300,36
1762970746.6138282,63,49,185,342,86,138,356,39
1762970746.6513631,54,45,131,259,95,162,369,40
1762970746.673814,56,47,123,312,91,167,393,65
1762970746.718804,58,43,122,298,94,164,415,67
1762970746.750287,57,55,155,302,82,166,466,73
1762970746.77127,49,52,154,239,81,159,447,52
1762970746.793774,40,54,155,225,82,155,448,49
1762970746.831253,41,54,158,225,67,171,464,48
1762970746.8537428,33,43,119,248,62,159,411,40
1762970746.8912406,37,41,115,283,78,145,396,38
1762970746.9137416,39,40,99,266,80,134,400,35
1762970746.9527984,38,33,113,248,90,122,305,37
1762970746.9737816,41,37,119,270,89,130,308,37
1762970747.0112553,37,36,112,259,73,118,311,42
1762970747.0337543,37,43,105,280,69,108,303,36
1762970747.07126,33,44,89,299,57,98,291,38
1762970747.0938096,33,43,100,344,56,145,370,39
1762970747.131253,37,43,126,431,83,163,418,44
1762970747.1537547,39,42,123,431,87,159,415,44
1762970747.1912773,45,55,113,406,99,111,356,52
1762970747.2137992,42,56,125,433,105,106,378,52
1762970747.25278,43,54,109,312,108,130,421,52
1762970747.2752972,36,46,109,304,110,151,405,45
1762970747.312799,33,44,102,262,106,195,462,40
1762970747.3337874,31,41,79,239,105,190,480,43
1762970747.3727658,34,39,70,218,109,206,484,41
1762970747.3937628,36,36,84,244,99,218,571,49
1762970747.4327898,38,36,82,231,101,248,505,46
1762970747.4538012,38,37,84,236,112,289,488,45
1762970747.47631,33,34,83,246,118,292,498,48
1762970747.5137582,39,44,80,190,145,320,355,52
1762970747.5362875,42,46,81,180,151,426,365,54
1762970747.560286,45,52,84,170,174,490,589,76
1762970747.596254,43,51,71,137,166,542,584,77
1762970747.6337473,38,44,56,133,160,476,573,79
1762970747.6562996,35,40,62,142,131,426,327,59
1762970747.6937342,33,41,90,133,118,386,450,61
1762970747.716339,34,43,93,146,116,381,480,62
1762970747.7538161,31,40,93,199,136,314,488,52
1762970747.783769,30,33,68,242,131,263,454,43
1762970747.813812,40,65,122,311,126,230,400,45
1762970747.8362882,43,111,215,332,121,213,426,48
1762970747.8737504,77,172,307,321,122,212,471,62
1762970747.8962648,81,175,307,284,120,206,481,62
1762970747.9337459,85,153,251,251,104,209,512,60
1762970747.9562507,79,142,233,218,102,208,523,62
1762970747.9937468,56,102,152,223,90,162,443,60
1762970748.0162642,47,99,153,237,90,132,389,58
1762970748.0537412,58,136,242,330,104,133,422,61
1762970748.0762475,61,131,233,343,88,134,496,56
1762970748.1137297,61,130,248,355,79,136,561,55
1762970748.1362283,46,84,207,300,84,162,565,48
1762970748.1738014,48,92,215,236,76,163,483,47
1762970748.1962845,49,106,234,232,75,155,441,43
1762970748.2337732,53,106,222,244,54,167,440,50
1762970748.2562702,57,115,215,310,64,174,456,52
1762970748.293824,59,118,191,411,95,198,473,60
1762970748.316245,62,120,202,411,95,189,457,58
1762970748.3537707,74,153,226,405,103,148,359,53
1762970748.376276,78,157,234,390,92,122,312,52
1762970748.3987463,72,147,220,336,78,108,371,49
1762970748.436267,60,167,253,381,75,131,486,51
1762970748.4587748,54,153,233,356,66,122,483,50
1762970748.4962828,50,142,234,377,94,114,440,45
1762970748.5187821,53,92,189,386,109,145,433,46
1762970748.557761,58,82,186,316,161,227,439,45
1762970748.5869634,58,73,153,275,169,241,430,46
1762970748.616302,53,61,145,259,180,225,499,49
1762970748.6387353,51,64,136,269,166,183,420,47
1762970748.6762602,56,67,130,252,111,165,474,55
1762970748.6987205,58,63,123,275,70,178,437,57
1762970748.736269,67,59,137,284,65,197,465,55
1762970748.7587554,65,54,145,314,73,204,424,54
1762970748.7962728,67,52,148,265,62,192,460,50
1762970748.81875,61,55,146,254,69,197,464,48
1762970748.8562727,64,49,139,243,68,198,456,49
1762970748.8787782,63,68,149,240,71,189,372,43
1762970748.9177265,60,64,139,301,58,181,337,46
1762970748.9387746,65,71,150,290,57,203,336,46
1762970748.9762032,66,66,149,334,61,206,460,57
1762970748.9987931,64,62,144,336,79,297,500,63
1762970749.0362406,62,59,152,316,97,387,564,68
1762970749.0587618,55,56,145,273,96,393,546,68
1762970749.0962663,43,44,125,272,79,341,496,49
1762970749.1187484,37,41,122,260,84,287,436,40
1762970749.1562767,50,50,104,255,72,262,504,39
1762970749.1787827,54,50,97,249,77,298,458,46
1762970749.2237527,58,67,139,301,69,255,429,55
1762970749.2552822,53,61,138,284,74,237,397,57
1762970749.2762678,49,60,144,327,64,180,364,48
1762970749.2988129,49,47,122,289,65,195,429,50
1762970749.3362644,48,55,134,291,77,191,380,57
1762970749.3588133,45,56,143,303,68,176,370,56
1762970749.381292,46,57,163,290,71,171,394,57
1762970749.418782,46,57,159,292,74,185,328,46
1762970749.4413111,40,47,158,295,86,183,345,39
1762970749.4787526,39,43,128,226,86,196,375,40
1762970749.5012298,47,41,106,232,81,216,458,38
1762970749.5387402,45,51,122,211,56,199,449,35
1762970749.561245,44,52,112,216,60,203,482,44
1762970749.598753,35,56,115,192,45,177,432,46
1762970749.621254,32,42,94,192,53,200,446,47
1762970749.6587737,36,49,107,209,83,230,473,44
1762970749.6812787,35,49,103,220,80,234,485,50
1762970749.718775,58,55,117,238,88,230,507,58
1762970749.7412639,61,52,116,205,73,208,458,58
1762970749.7787287,65,52,117,185,71,251,380,47
1762970749.801265,50,49,120,204,75,227,285,41
1762970749.8387392,44,47,127,243,74,214,339,36
1762970749.8612595,37,52,132,251,75,209,384,42
1762970749.8987703,34,56,141,296,80,155,389,44
1762970749.9227228,35,58,131,302,79,197,351,40
1762970749.9587963,32,56,121,255,66,185,375,35
1762970749.981273,33,58,123,265,68,197,378,36
1762970750.0262733,34,46,100,272,67,168,371,38
1762970750.0562627,36,48,114,309,82,190,370,43
1762970750.078736,35,48,126,294,79,190,389,44
1762970750.1012237,34,44,127,288,75,194,394,48
1762970750.1402194,31,56,121,310,80,239,422,42
1762970750.169472,36,60,130,327,67,237,394,42
1762970750.1987753,40,56,116,315,60,212,397,38
1762970750.222788,45,59,109,315,68,155,387,32
1762970750.2437887,43,48,103,283,70,145,333,31
1762970750.2827215,44,52,80,200,71,161,228,34
1762970750.3037367,42,51,86,187,71,161,257,34
1762970750.3412685,37,46,90,249,65,148,241,32
1762970750.3637545,39,43,101,263,67,144,271,35
1762970750.4012394,36,45,101,338,66,136,364,35
1762970750.4237463,35,51,121,316,66,141,382,36
1762970750.4612508,31,53,113,310,52,107,374,36
1762970750.4837544,31,51,111,276,52,106,378,35
1762970750.5369911,33,56,115,232,72,162,346,31
1762970750.5587416,35,51,115,294,77,167,369,30
1762970750.5812597,35,55,127,279,76,183,311,30
1762970750.6037586,35,51,114,281,73,174,310,35
1762970750.642752,32,40,108,309,66,166,332,42
1762970750.6637259,31,49,104,266,58,168,362,42
1762970750.7012467,32,60,163,275,67,198,418,48
1762970750.7237458,33,60,162,262,57,208,390,42
1762970750.7612736,39,57,162,316,62,206,387,48
1762970750.7837539,40,59,169,347,66,194,414,46
1762970750.8211927,38,67,205,451,57,138,671,54
1762970750.843777,38,71,220,437,57,158,676,52
1762970750.8812773,34,62,197,359,57,155,611,59
1762970750.903754,34,53,199,303,63,162,468,58
1762970750.9277244,39,51,161,278,66,174,373,57
1762970750.9637187,42,61,211,293,80,199,404,57
1762970751.001245,42,72,248,280,73,207,417,56
1762970751.0237,39,73,255,281,85,199,468,56
1762970751.0612283,38,60,215,331,85,211,472,48
1762970751.083731,36,57,219,330,89,218,479,49
1762970751.1212327,35,42,151,340,78,206,384,51
1762970751.1437428,32,42,146,336,73,169,372,52
1762970751.1812055,35,44,146,342,72,142,438,52
1762970751.2037084,41,56,147,325,72,144,446,48
1762970751.24151,37,56,126,354,74,166,432,44
1762970751.2637086,42,61,136,317,62,169,484,55
1762970751.2876372,41,57,119,363,67,172,450,54
1762970751.3237045,41,53,107,387,74,155,481,57
1762970751.3461745,40,53,110,365,77,186,461,56
1762970751.3836977,37,47,98,343,79,202,399,46
1762970751.4061904,35,46,92,313,75,197,294,40
1762970751.443726,36,48,100,329,64,202,362,38
1762970751.474415,36,56,105,320,69,192,390,36
1762970751.5037355,35,50,111,362,63,240,410,48
1762970751.5262203,36,61,107,315,62,240,380,46
1762970751.5637066,37,60,120,301,67,199,353,48
1762970751.5862074,40,62,124,241,61,224,381,54
1762970751.6237934,39,68,163,221,64,189,378,51
1762970751.6462948,38,64,160,213,62,187,383,52
1762970751.683727,36,58,144,209,60,158,383,48
1762970751.7062342,30,61,139,217,58,116,368,50
1762970751.7436764,34,52,115,176,54,138,417,52
1762970751.7661994,35,54,127,302,52,160,385,50
1762970751.8036923,35,44,128,304,50,166,394,51
1762970751.8262057,35,42,122,337,50,197,470,49
1762970751.8651862,32,36,117,252,47,212,421,44
1762970751.8861878,32,42,126,243,53,208,411,43
1762970751.9252899,34,41,122,212,53,213,411,47
1762970751.9462185,34,39,111,213,53,182,345,43
1762970751.96873,33,39,109,176,57,176,339,42
1762970752.0062542,27,33,79,148,58,181,278,34
1762970752.0287373,27,34,94,125,66,147,239,35
1762970752.0661895,26,38,119,189,71,148,231,35
1762970752.1036997,25,36,124,205,70,151,237,40
1762970752.1262097,27,38,116,222,69,164,265,37
1762970752.1637034,31,38,106,213,73,162,281,36
1762970752.1861992,31,35,96,203,68,192,365,36
1762970752.2087154,32,38,101,261,67,190,365,33
1762970752.2461965,32,35,106,289,66,183,417,41
1762970752.2769527,29,33,86,256,55,184,460,42
1762970752.3062098,28,30,97,245,82,149,391,41
1762970752.328712,28,30,84,248,79,145,386,40
1762970752.366224,24,31,89,232,84,157,220,35
1762970752.3887124,25,31,83,239,88,157,219,39
1762970752.4262326,23,28,70,224,68,188,263,38
1762970752.448729,22,28,63,218,70,175,262,37
1762970752.4861672,22,26,52,194,76,155,239,30
1762970752.508674,24,27,51,182,85,148,245,30
1762970752.5461948,31,32,74,229,96,141,398,41
1762970752.5686674,34,35,76,220,96,196,427,46
1762970752.6061823,34,36,105,225,109,217,590,49
1762970752.628696,35,37,101,219,108,218,611,47
1762970752.6661947,30,33,93,204,139,208,552,36
1762970752.6887155,31,33,70,174,161,204,449,36
1762970752.7262285,29,31,65,183,177,215,447,40
1762970752.7487166,27,29,64,176,181,248,429,45
1762970752.7861705,31,32,70,210,172,239,565,48
1762970752.8086877,31,35,80,208,171,256,506,49
1762970752.8461823,32,35,77,236,149,255,632,52
1762970752.8686714,32,34,83,232,153,269,668,58
1762970752.90619,31,38,83,311,127,222,627,56
1762970752.928717,30,47,91,324,121,223,703,63
1762970752.966202,37,53,101,366,84,202,496,52
1762970752.9887598,37,53,92,320,72,193,523,52
1762970753.02623,36,48,92,300,84,205,569,41
1762970753.0487041,28,41,87,251,92,168,585,47
1762970753.0861607,29,43,109,233,127,194,656,51
1762970753.1088016,35,44,101,220,125,201,603,59
1762970753.1311457,37,50,117,266,137,205,560,58
1762970753.1686723,37,57,111,313,133,166,549,53
1762970753.1911843,36,61,113,338,134,170,442,47
1762970753.2286718,33,68,155,358,129,139,377,37
1762970753.251182,34,70,152,377,136,160,340,38
1762970753.2887,37,70,181,389,123,151,372,41
1762970753.3111885,38,80,184,392,134,138,351,43
1762970753.3486998,36,73,154,387,118,140,360,45
1762970753.371205,36,77,145,403,107,131,387,44
1762970753.4169571,35,75,180,448,98,143,377,43
1762970753.4476745,40,97,202,454,92,107,406,45
1762970753.4686446,45,95,213,444,97,111,381,42
1762970753.491638,43,98,206,440,88,93,347,40
1762970753.5291264,40,81,222,465,84,89,444,47
1762970753.551168,41,90,238,443,82,101,436,44
1762970753.5886724,38,103,267,457,70,91,392,45
1762970753.6111746,40,111,262,455,66,86,345,45
1762970753.6344094,52,109,231,398,60,87,308,39
1762970753.671177,56,117,223,332,52,64,338,40
1762970753.7087898,61,109,198,282,59,100,465,48
1762970753.7312691,51,100,182,271,63,101,441,45
1762970753.7687008,60,90,232,324,66,104,391,47
1762970753.7912042,64,91,228,353,67,89,336,42
1762970753.8287086,62,86,238,322,73,80,261,42
1762970753.8511944,56,81,237,336,105,84,255,39
1762970753.8886993,46,81,297,316,185,168,251,39
1762970753.9111521,49,78,297,313,208,178,206,34
1762970753.948683,45,77,312,355,204,209,189,36
1762970753.971143,51,78,289,418,219,203,179,35
1762970754.0088375,49,67,259,428,172,192,103,34
1762970754.0311751,51,64,243,404,174,195,141,28
1762970754.0686715,43,58,227,314,185,185,224,38
1762970754.091225,42,52,237,328,175,190,243,38
1762970754.1143532,36,45,206,364,159,172,281,37
1762970754.151175,44,53,182,385,198,263,258,40
1762970754.1748033,50,61,188,384,204,262,239,38
1762970754.2116525,51,65,192,333,223,280,236,46
1762970754.233689,46,57,189,309,212,293,236,38
1762970754.2712126,36,58,193,243,177,240,249,39
1762970754.293752,34,53,188,300,161,241,219,29
1762970754.3311505,33,52,189,304,166,210,187,26
1762970754.353644,35,39,184,296,180,182,198,26
1762970754.3911817,31,39,153,241,138,164,202,25
1762970754.4137108,35,43,162,206,145,174,200,29
1762970754.451208,30,44,153,273,131,166,138,27
1762970754.4736722,30,46,136,259,138,191,266,30
1762970754.5112348,31,41,137,289,138,179,304,30
1762970754.5337448,32,44,127,258,126,174,308,31
1762970754.5712378,31,37,130,212,114,137,258,31
1762970754.593739,28,40,130,211,117,147,294,35
1762970754.6311545,25,33,89,192,105,142,311,35
1762970754.653656,24,32,93,186,98,139,322,37
1762970754.6911538,25,26,86,143,86,153,310,34
1762970754.7136614,27,32,104,139,80,151,307,38
1762970754.7511656,32,36,115,156,95,169,313,46
1762970754.773657,32,37,132,164,93,146,371,56
1762970754.8112257,39,34,114,165,93,169,432,53
1762970754.8336792,39,32,88,122,79,161,491,61
1762970754.8711886,40,34,126,179,82,163,482,54
1762970754.8937442,41,37,149,199,87,174,540,64
1762970754.9468834,59,47,158,194,81,216,489,88
1762970754.9686568,349,71,121,138,78,316,694,147
1762970754.9911895,412,74,108,120,81,322,719,164
1762970755.0136998,420,76,155,194,85,333,774,171
1762970755.036846,427,75,152,243,93,342,815,168
1762970755.073675,354,63,215,269,102,254,786,136
1762970755.096842,428,65,210,268,101,241,752,122
1762970755.1336584,686,185,206,236,88,175,713,169
1762970755.1565797,699,186,181,282,84,243,700,178
1762970755.1937394,858,390,159,278,96,243,676,279
1762970755.216883,892,387,145,277,93,247,678,271
1762970755.2536519,798,376,141,190,92,255,642,276
1762970755.276928,732,413,167,208,78,284,623,218
1762970755.3136606,506,252,205,230,74,314,596,184
1762970755.3369217,491,248,205,312,85,294,570,177
1762970755.3736517,463,151,179,282,91,289,542,125
1762970755.3968666,255,107,169,273,99,268,533,83
1762970755.4336333,213,75,132,118,111,290,498,71
1762970755.4568548,175,74,130,127,118,312,486,66
1762970755.493685,136,75,136,136,115,308,569,71
1762970755.5168574,110,71,120,136,126,292,574,81
1762970755.5536933,142,111,182,117,95,272,676,124
1762970755.5768204,150,115,211,158,113,280,609,136
1762970755.613648,145,127,267,233,117,357,602,136
1762970755.636819,130,105,296,286,124,372,473,117
1762970755.673647,76,113,299,458,135,359,419,81
1762970755.6968856,64,116,372,508,144,325,368,73
1762970755.7336426,63,119,355,512,176,322,351,59
1762970755.7570038,59,122,386,590,177,325,344,55
1762970755.7936716,56,115,320,452,168,331,412,56
1762970755.816845,54,109,312,432,140,277,349,55
1762970755.8536417,49,102,247,252,111,246,340,47
1762970755.8761446,43,100,225,241,79,194,301,50
1762970755.9136257,40,74,177,316,69,170,342,53
1762970755.9361231,41,80,155,315,89,165,345,53
1762970755.9668787,38,72,140,334,89,171,381,54
1762970755.99617,41,92,191,333,85,159,412,51
1762970756.0193896,43,118,260,288,84,163,426,53
1762970756.0561738,56,158,355,283,65,184,403,54
1762970756.079324,58,156,350,317,68,187,427,54
1762970756.1161835,64,159,345,383,78,179,357,50
1762970756.1393306,58,144,281,391,114,161,368,50
1762970756.1618588,54,121,253,381,153,174,373,53
1762970756.199348,44,93,146,296,153,167,334,51
1762970756.2361326,43,51,137,258,141,190,286,46
1762970756.2593665,41,48,130,295,96,175,305,49
1762970756.2961287,35,45,156,334,105,218,264,44
1762970756.319331,38,50,167,334,118,240,270,45
1762970756.3561778,39,45,149,254,137,313,295,38
1762970756.379331,43,45,144,165,139,331,351,41
1762970756.4161532,41,50,130,226,144,322,334,39
1762970756.439318,41,51,132,226,120,344,290,37
1762970756.476146,38,66,155,284,130,373,205,35
1762970756.4993148,40,70,174,342,130,378,221,37
1762970756.5361466,47,80,236,523,141,303,223,37
1762970756.5593605,43,75,241,530,147,300,249,35
1762970756.596135,44,65,219,497,146,278,282,43
1762970756.6193714,43,57,173,450,143,298,317,48
1762970756.656192,36,33,85,273,143,341,333,48
1762970756.6793554,28,31,72,162,137,366,345,45
1762970756.7161222,33,33,96,258,179,331,424,40
1762970756.7393355,36,38,100,268,177,330,490,45
1762970756.7761881,43,55,143,330,161,327,601,51
1762970756.7993321,45,54,136,303,131,331,653,54
1762970756.8361635,49,55,139,289,116,294,597,61
1762970756.8593655,47,48,143,309,124,307,588,59
1762970756.881866,52,46,120,296,119,316,559,60
1762970756.9193559,63,69,133,338,104,284,526,53
1762970756.9418368,64,71,126,354,126,299,555,55
1762970756.9793327,60,70,107,297,138,223,572,53
1762970757.0019093,57,63,115,307,138,207,525,54
1762970757.0393448,39,47,122,258,133,274,503,44
1762970757.061823,36,50,124,274,124,268,484,43
1762970757.0993378,45,52,128,327,117,277,417,40
1762970757.1218612,44,52,123,347,108,231,384,39
1762970757.15935,51,75,131,439,138,204,406,43
1762970757.18184,53,84,123,430,125,201,435,43
1762970757.2193625,52,91,130,377,120,197,432,47
1762970757.2419221,51,97,136,354,115,202,423,46
1762970757.279423,42,90,117,199,77,181,179,33
1762970757.301837,39,86,111,158,81,157,137,31
