Timestamp,CH_1,CH_2,CH_3,CH_4,CH_5,CH_6,CH_7,CH_8
1763470469.6693738,0,-1,1,-2,-3,-2,0,0
1763470469.691573,-1,-1,0,-1,-1,0,-1,-2
1763470469.7141998,-1,0,-1,3,0,-2,-3,0
1763470469.7291605,0,0,2,6,-4,0,1,-1
1763470469.751622,-1,-2,-2,-3,-4,0,0,0
1763470469.7656288,-1,-2,-2,-7,-5,0,-2,-2
1763470469.7741718,0,-2,-1,-1,2,-2,-2,0
1763470469.789032,-1,0,0,-4,-6,-2,-1,0
1763470469.8197293,-1,-1,-3,3,1,-1,-1,-1
1763470469.825811,-1,0,0,1,9,-1,-1,-1
1763470469.8326895,-1,0,0,3,-6,1,1,-1
1763470469.849016,0,-2,-2,-2,0,0,0,-2
1763470469.8715944,-2,-2,-1,-3,-2,1,0,1
1763470469.8859088,-1,-1,-1,-3,-3,-2,-1,0
1763470469.8926685,-1,-2,-2,-6,-7,-2,-3,-2
1763470469.916647,-1,-1,2,1,-1,-1,-1,-1
1763470469.9316838,0,-2,-3,2,6,-1,0,-2
1763470469.9458678,-1,-2,-2,2,-2,1,0,-1
1763470469.9601803,-1,-2,-3,-1,1,-2,-1,-1
1763470469.9695861,-1,-2,-2,0,1,-1,-1,-2
1763470469.9915013,-1,0,0,-1,-3,-1,-1,0
1763470470.0069764,-1,-1,-2,1,0,0,-1,-1
1763470470.0131464,0,-2,-2,0,-3,-1,-1,-1
1763470470.0381424,-1,-2,-4,-3,-5,-2,-1,-1
1763470470.0520396,0,-1,0,-5,7,-1,1,0
1763470470.0653033,-1,-1,-1,-2,-6,-1,-1,0
1763470470.0820951,-3,-2,-1,-12,-7,-3,-1,-1
1763470470.089236,0,0,0,2,1,-2,-1,-2
1763470470.1115632,-3,-2,0,3,3,-3,-1,-1
1763470470.1256015,0,-2,0,-6,-10,-1,0,-1
1763470470.1419408,-3,-2,-1,-3,5,-1,0,-1
1763470470.1494143,-2,-2,-1,0,-7,-1,-1,0
1763470470.1716588,0,0,-2,-2,4,-1,-2,0
1763470470.1852353,-1,-2,-4,-3,-3,-1,-1,-1
1763470470.1942065,0,0,1,-6,-5,-1,-1,0
1763470470.209014,-1,-2,-3,-3,0,-2,-2,-2
1763470470.2390456,1,1,-1,-4,-10,1,-1,0
1763470470.2451937,-1,0,0,2,2,-3,0,-2
1763470470.254192,-1,-2,-5,-11,-6,-2,-2,-2
1763470470.2690458,-2,0,2,-3,2,2,-1,0
1763470470.291616,-1,-2,-3,1,1,0,1,-2
1763470470.3052747,0,-1,2,4,-1,3,-2,-2
1763470470.314222,0,1,-2,-1,1,-1,-1,-2
1763470470.3290558,-2,-2,2,-2,-4,-1,-1,-1
1763470470.350728,1,0,-2,1,1,-1,-2,-1
1763470470.359194,-1,-1,1,2,-1,-2,-1,-1
1763470470.3652096,-1,-2,-1,-1,3,0,0,0
1763470470.3741755,-2,-2,-2,-1,0,-2,-1,-1
1763470470.3891342,1,1,0,13,21,1,-1,-2
1763470470.4117532,-1,-1,0,-2,-5,-3,-1,-1
1763470470.4252937,-3,-1,-2,-4,-7,-1,1,-1
1763470470.4342709,0,-1,-3,-5,-6,-3,-1,-1
1763470470.449028,0,-1,-1,-8,-4,-3,-2,0
1763470470.471586,-2,-3,-1,-6,-8,-2,-2,-1
1763470470.485162,0,-1,-2,0,-4,0,0,0
1763470470.4941707,1,-1,0,4,4,2,0,-2
1763470470.5084894,-1,-1,-1,-3,-5,0,0,-1
1763470470.5170565,-2,-1,-1,5,12,2,0,-1
1763470470.531551,0,0,0,0,0,-1,0,-1
1763470470.5541127,-2,0,-1,1,3,-2,-3,-1
1763470470.5692697,0,-2,-4,-4,-3,2,-1,0
1763470470.591608,-1,0,0,0,-3,-3,-1,-2
1763470470.614107,-3,-2,-1,-5,-3,1,-1,-1
1763470470.636582,0,-1,0,-3,3,-4,0,0
1763470470.652128,-1,-1,-2,-2,-1,-1,-1,-1
1763470470.6741521,0,1,-1,-4,-2,1,0,-2
1763470470.6883934,-2,0,0,2,-1,0,-1,-1
1763470470.6951778,-1,0,1,0,-3,0,-1,-1
1763470470.711588,0,-1,-1,-2,3,1,0,-3
1763470470.750381,-3,-3,-1,-5,-5,-4,-3,-1
1763470470.7566817,-1,-2,-3,0,-1,-1,-2,-1
1763470470.7716126,-3,-2,-2,-1,3,0,-2,0
1763470470.7941406,-1,-1,-1,0,-4,-1,-2,1
1763470470.8084097,-2,-2,-4,-4,-6,-3,-1,0
1763470470.8152857,0,1,2,-7,-10,-1,1,0
1763470470.8392947,-1,-1,2,1,0,-1,0,-1
1763470470.8541121,-1,0,1,-2,-4,-1,-1,-1
1763470470.86851,0,0,2,2,-2,-1,0,-2
1763470470.8753505,-2,-2,0,1,-1,-2,1,-1
1763470470.891639,-1,-2,-2,0,0,-1,-2,-1
1763470470.914175,1,1,2,7,4,-1,-1,0
1763470470.9285042,-2,0,-2,13,19,1,1,-1
1763470470.9355066,0,-3,-3,-2,0,-1,-2,0
1763470470.9515543,-2,-1,-1,-4,-7,-2,-3,-1
1763470470.9740534,-2,-2,-2,-3,1,0,1,-1
1763470470.9884372,0,-1,-1,-3,-4,-2,-1,-1
1763470470.9952757,0,1,-1,1,-1,0,-2,-1
1763470471.0116494,-1,-2,-2,-3,1,-1,-2,0
1763470471.0340836,0,0,1,11,13,1,1,-1
1763470471.056653,0,-2,-3,-7,-8,-4,-2,0
1763470471.0717442,0,0,-2,-6,-4,2,-1,-2
1763470471.1016572,-1,0,0,-10,-9,-4,0,-1
1763470471.116513,0,0,0,1,2,-2,-2,-2
1763470471.1315746,-1,-2,2,10,9,-1,1,-2
1763470471.1616015,-1,-1,-5,-5,-8,-1,-2,-1
1763470471.1676586,-1,-3,-1,-13,-12,-4,-2,-2
1763470471.1767905,0,-3,-2,-9,-15,-2,-1,0
1763470471.1916008,-1,0,0,-3,-4,-3,-2,-2
1763470471.2141361,-3,1,0,6,6,0,0,0
1763470471.227749,0,0,-1,-2,-3,-2,-1,0
1763470471.2368274,-3,-2,0,-4,-4,-1,-1,0
1763470471.2517853,-2,0,0,3,-1,-3,-2,-1
1763470471.2742379,0,-1,-1,1,2,-1,0,-1
1763470471.288113,-1,-2,-2,-5,-9,-1,-1,-1
1763470471.2969966,-1,-2,-1,-1,4,-1,-2,0
1763470471.3116035,-1,-2,-1,-1,0,0,1,-1
1763470471.3341784,-2,-2,-3,1,-1,0,0,-1
1763470471.347728,-1,-1,0,-2,-1,-2,0,-1
1763470471.3566265,0,-1,-2,2,6,-2,-1,0
1763470471.3716393,1,-2,-3,-4,-8,-1,-1,-1
1763470471.3940735,-2,-1,0,-2,-3,-2,-2,0
1763470471.407764,-1,0,2,-4,-8,1,-1,-2
1763470471.416723,-1,-1,-1,0,-3,-1,1,-1
1763470471.43167,0,-1,-2,-1,2,0,-2,-2
1763470471.4541037,-2,0,0,1,-2,-2,-1,0
1763470471.4768925,0,-2,0,-1,2,1,-1,0
1763470471.4916599,0,0,1,8,11,-2,1,0
1763470471.5142057,-1,0,-2,-4,-2,-1,-1,-1
1763470471.5370698,-1,0,-1,-3,-1,0,-2,-2
1763470471.551881,-1,-3,-2,0,-2,-2,0,-1
1763470471.5742207,-3,-3,-4,4,3,-1,-1,-1
1763470471.5967155,2,1,2,-3,-5,-1,-2,0
1763470471.6266143,-1,1,-3,-2,-3,-1,-2,0
1763470471.6340945,-1,0,1,4,-7,-1,0,-1
1763470471.656644,-2,-1,1,4,1,-1,0,-1
1763470471.6709883,-1,-1,0,-5,-1,-1,0,-1
1763470471.6777127,-1,-3,-4,-1,-2,-1,-1,-1
1763470471.6941037,-1,1,-1,-1,2,0,0,-1
1763470471.71667,0,0,-1,-2,1,0,0,-1
1763470471.7309732,1,-1,-1,-2,-2,-1,-1,-3
1763470471.737799,-1,1,-2,-3,-6,-2,-2,0
1763470471.754699,0,0,-1,-2,-2,0,1,-1
1763470471.7765143,-1,-6,-2,-3,1,0,-4,0
1763470471.7908936,-2,-3,-3,-3,1,-2,0,-1
1763470471.7977731,2,1,0,3,3,0,1,1
1763470471.8142078,-20,-5,-1,-3,-4,-1,0,0
1763470471.836911,18,-8,0,-1,-1,-1,0,0
1763470471.8508894,-9,-5,-14,-6,1,-1,-3,-4
1763470471.8576741,26,8,14,3,0,1,0,-1
1763470471.8740528,0,-16,-35,-5,-4,-4,-3,-2
1763470471.9041421,-6,-16,7,0,-9,-4,-2,-4
1763470471.9101646,-11,-18,-7,0,1,1,-2,-1
1763470471.9192574,-21,-51,-18,-9,-6,-3,-4,-7
1763470471.9340646,-9,32,41,15,16,2,0,0
1763470471.956653,4,12,8,2,0,0,2,0
1763470471.979116,6,14,4,2,2,2,-3,0
1763470471.994048,3,4,2,-5,20,3,0,1
1763470472.0241585,7,-3,8,5,6,-5,1,0
1763470472.030249,5,-2,-8,-5,-10,-1,-2,-2
1763470472.0392432,-3,1,-9,20,13,2,-1,-2
1763470472.054093,2,11,0,-7,-11,-6,0,0
1763470472.0765994,-1,5,-3,9,0,1,-1,-1
1763470472.0901904,-6,-2,-9,-8,-15,-8,-8,-2
1763470472.0992303,-6,0,-4,-4,2,9,1,-2
1763470472.1142201,-2,-1,-2,-6,-8,12,0,1
1763470472.1367004,6,-8,-7,-3,9,9,-6,-12
1763470472.1502051,6,-2,-1,9,-7,-28,-27,6
1763470472.1592555,1,2,4,25,3,1,34,18
1763470472.1816401,7,0,-2,-1,-13,-5,20,13
1763470472.1977644,0,4,4,31,52,94,31,1
1763470472.2115831,-6,2,17,15,5,-90,-74,-72
1763470472.219785,3,-9,-18,12,23,57,-84,-113
1763470472.2341533,7,-6,-10,-27,-33,-19,-51,-35
1763470472.2566626,-14,-8,-17,-20,-21,-52,-1,-20
1763470472.2703128,-11,-4,-1,56,-45,78,56,-9
1763470472.279569,20,-15,-64,-77,15,34,76,113
1763470472.2944262,27,20,27,-2,58,77,78,-6
1763470472.316921,-24,-10,-10,-18,1,11,9,14
1763470472.330295,-8,-11,0,45,31,24,-11,26
1763470472.339276,-40,-5,24,50,-13,-104,6,-96
1763470472.353462,-14,-5,5,-23,-29,-51,-33,5
1763470472.3603513,6,5,-18,-31,3,-17,-93,-29
1763470472.376512,23,6,-10,-54,-58,-110,-19,91
1763470472.399172,-8,-2,-20,-6,-62,36,13,-97
1763470472.4135063,-28,-8,9,-51,-7,-90,-92,-67
1763470472.4201977,-14,-27,-20,88,127,-58,-2,15
1763470472.4365792,15,-2,-13,34,23,-30,-118,12
1763470472.4590628,43,1,-34,-71,52,86,67,54
1763470472.473515,-33,-10,3,20,-36,-10,53,27
1763470472.480271,-25,-1,-8,-40,-9,-89,-64,-38
1763470472.504045,0,-1,-24,-65,18,19,8,37
1763470472.519024,10,-10,-30,88,21,13,26,49
1763470472.5334299,-17,21,40,2,12,-64,-9,-57
1763470472.5402007,14,8,8,10,23,-24,-10,25
1763470472.5567803,5,-2,-6,-21,-29,29,9,70
1763470472.5792036,1,1,-15,-50,2,97,52,-24
1763470472.5938094,-6,13,7,-52,-31,-23,-25,-7
1763470472.6007,-8,-17,-5,-10,-50,7,-41,-20
1763470472.6244478,29,10,1,3,26,57,-34,-18
1763470472.6391232,-16,-4,18,51,-2,-8,-4,-35
1763470472.6535068,-11,-19,-15,21,11,-63,-37,4
1763470472.6602848,10,9,20,15,31,23,17,-74
1763470472.6766768,-16,0,13,-1,12,-1,-17,-58
1763470472.6993978,-11,2,10,8,-44,-44,7,-36
1763470472.7142487,4,-1,27,-11,-9,-56,41,-7
1763470472.721875,-8,-5,-4,13,-35,-37,-70,6
1763470472.7367682,-4,-8,9,38,-17,-39,-65,-34
1763470472.7666736,-19,13,27,-11,44,-11,-84,-4
1763470472.7734745,43,1,8,-33,-11,-23,-44,78
1763470472.7802396,2,-20,-7,17,12,11,18,61
1763470472.796609,0,-1,-21,-18,16,-4,63,45
1763470472.819175,2,-11,-52,-29,-18,-5,-7,34
1763470472.8334503,-25,-8,4,15,-21,21,89,-20
1763470472.840162,19,14,-18,-36,27,31,23,81
1763470472.8566873,-23,-37,4,-3,-11,24,6,-46
1763470472.8791583,2,16,16,17,69,65,-34,-4
1763470472.9016805,23,5,-2,-24,-53,11,40,7
1763470472.9166136,-4,-5,-10,-2,-9,65,-26,-10
1763470472.939168,-8,2,32,59,22,-3,-25,-22
1763470472.9528039,1,3,0,17,-1,-46,-8,15
1763470472.961704,0,-9,-18,-39,31,-33,-21,38
1763470472.9767244,-12,5,2,52,33,-32,-1,-6
1763470473.0068042,7,-4,-10,26,-19,-31,-11,-32
1763470473.0129414,31,2,-27,-36,22,2,23,-16
1763470473.0217977,9,5,-14,5,13,87,48,10
1763470473.0366516,-4,-14,-45,-51,43,1,8,50
1763470473.0596378,-3,-4,0,-33,-20,23,-3,49
1763470473.0730884,-7,0,4,20,-37,-87,-8,-19
1763470473.0892925,5,5,-1,46,42,79,24,92
1763470473.096452,8,19,24,-30,-15,19,1,-3
1763470473.1042693,-12,-1,5,7,-33,-32,-19,-30
1763470473.1192334,1,-3,-8,-23,10,20,17,-3
1763470473.132856,-2,17,34,51,15,4,-5,-19
1763470473.1431286,0,2,2,-28,9,22,-1,1
1763470473.1568499,-7,-2,-4,-5,14,6,-24,1
1763470473.178796,-1,-2,4,30,3,4,-12,-13
1763470473.2010443,-1,-9,-2,-15,-21,-14,-8,8
1763470473.215831,2,-2,-2,-4,-10,32,15,-8
1763470473.2386212,17,7,2,-16,-15,38,27,-9
1763470473.2611399,-16,-4,-1,22,46,-12,52,-35
1763470473.2761564,-18,0,-14,50,21,53,-15,2
1763470473.2987366,-5,-5,0,-5,47,19,-41,-6
1763470473.321282,-7,-9,-5,-3,-52,-12,-4,-58
1763470473.336805,23,7,-3,-29,-10,-6,33,89
1763470473.3583965,6,5,7,-17,-51,-47,-22,7
1763470473.3812478,-7,-11,-8,-1,13,69,1,56
1763470473.3958583,1,2,5,6,-53,-6,14,-21
1763470473.4185178,-8,-6,-1,-7,-21,-38,-40,6
1763470473.4410102,-1,9,-10,-49,16,-17,-37,22
1763470473.455999,-3,-7,1,61,-9,-2,0,-19
1763470473.478421,-10,-7,-6,49,-2,-19,-5,-23
1763470473.5009224,25,6,3,-12,0,-50,35,13
1763470473.5257485,-11,-9,4,5,22,-18,-5,-5
1763470473.5384421,-13,7,15,5,-2,25,-7,-51
1763470473.5610132,5,11,-1,-47,-34,-57,35,-12
1763470473.5759299,19,1,9,-22,10,43,-16,38
1763470473.598666,-17,3,16,73,44,-4,-44,-18
1763470473.6211853,7,1,19,67,57,82,9,-6
1763470473.6359813,6,3,-20,-83,-16,6,47,-58
1763470473.6590877,-24,-15,-17,5,4,-53,-32,-37
1763470473.6810482,-18,-11,-24,-30,-68,-15,24,32
1763470473.6958513,-3,2,5,36,70,81,-17,72
1763470473.7185085,16,-7,-4,-60,-64,-39,-15,24
1763470473.7408497,7,14,24,22,26,7,17,-26
1763470473.7553506,-1,0,-4,-24,-46,-47,-33,-39
1763470473.763527,9,6,-10,-24,-29,-36,18,52
1763470473.778569,-13,-12,-17,-5,26,-7,18,11
1763470473.8011174,-8,-8,3,21,-3,18,37,-10
1763470473.8154857,3,-2,5,-19,31,23,-3,82
1763470473.823586,2,-8,0,60,15,48,19,-70
1763470473.8384745,12,18,17,10,-3,81,-4,-83
1763470473.861004,9,-7,-8,-7,10,-18,30,48
1763470473.8751938,-6,-22,-39,-7,7,11,5,-11
1763470473.883471,-2,-19,-20,-16,24,1,0,110
1763470473.898424,-3,5,-6,-30,-9,8,2,-24
1763470473.9210105,-3,-8,-14,35,-3,2,-38,1
1763470473.9368114,20,-9,-33,-35,-20,-74,-53,9
1763470473.9433959,-9,-2,4,10,9,32,9,-21
1763470473.9584756,-16,4,24,-11,14,-29,-2,-67
1763470473.981056,-14,6,14,4,-2,-33,7,0
1763470473.995405,2,-4,10,15,16,21,6,-17
1763470474.0035858,3,-1,0,11,14,44,-10,-36
1763470474.0267444,31,7,-3,7,-22,0,29,76
1763470474.0411105,-15,-2,-2,-18,47,6,-11,-20
1763470474.0553453,-1,-17,-21,-8,11,9,6,64
1763470474.0635653,2,5,13,-13,-5,-18,46,-7
1763470474.0783916,-2,5,1,8,18,9,-17,-1
1763470474.1010075,9,6,16,64,-1,-44,-6,-27
1763470474.1152482,-9,-1,-5,-56,-16,-18,-41,-22
1763470474.123479,-4,-9,-8,-34,2,40,-3,19
1763470474.1385653,-9,2,3,47,-29,3,14,-42
1763470474.1692038,-7,10,12,9,-31,4,-1,41
1763470474.1752868,0,-3,-19,-54,20,-9,-7,-22
1763470474.183555,8,14,19,23,25,43,17,22
1763470474.1985664,-22,-8,7,-12,-58,-23,10,-36
1763470474.221199,1,-9,-19,1,-9,64,41,-14
1763470474.2441926,3,4,7,-20,-44,-78,-8,-20
1763470474.2587416,11,-4,-16,0,47,-17,9,-56
1763470474.2813506,16,0,0,-17,-10,-14,2,37
1763470474.30431,3,12,29,24,1,3,16,37
1763470474.3184814,12,6,9,26,-37,15,27,6
1763470474.35657,-12,-4,2,-43,16,-10,-12,9
1763470474.364169,-29,-5,3,17,60,6,-17,-42
1763470474.3787303,-4,-9,-16,-12,18,1,-11,-64
1763470474.4010546,9,5,5,12,-2,17,0,41
1763470474.4241605,-2,-5,-16,25,18,41,49,-10
1763470474.4384332,0,-4,11,-28,-35,32,33,12
1763470474.4610083,4,5,24,21,-19,11,-28,19
1763470474.4841623,-5,-1,-18,-20,-20,-25,-14,-21
1763470474.4989119,6,11,13,14,15,30,-1,15
1763470474.520924,15,-1,-10,-31,-59,-57,-41,84
1763470474.543505,-15,-1,-2,-26,2,20,-3,51
1763470474.5584266,-14,-16,-10,-31,-16,-27,-10,-29
1763470474.5808797,14,7,14,73,19,11,5,-8
1763470474.6034057,-7,1,2,-10,-16,-20,-10,-27
1763470474.6184063,-16,-6,-7,5,4,-6,-7,7
1763470474.6410182,7,0,-3,-30,14,19,37,-61
1763470474.6634622,3,4,9,0,-30,-38,-23,-13
1763470474.6784594,7,5,-17,-27,-29,15,63,33
1763470474.7010424,2,-5,-9,-10,-6,-29,7,3
1763470474.7236042,-2,-10,-17,-5,31,11,-40,-18
1763470474.738549,-8,-3,-19,-55,-26,-39,-40,-2
1763470474.7609155,-9,-6,-15,-8,26,35,17,-27
1763470474.7837105,-12,-4,7,44,-12,-32,-21,-8
1763470474.7985501,13,8,31,19,-4,9,-3,9
1763470474.8210154,-8,-3,1,20,47,12,-74,-63
1763470474.843816,1,2,-8,-23,-3,-44,-9,8
1763470474.8595817,-3,3,14,23,-24,2,17,-20
1763470474.881762,10,4,1,9,24,27,82,79
1763470474.9034512,-12,-11,-13,20,-15,-6,4,-4
1763470474.9177816,5,3,19,74,55,-29,-3,9
1763470474.9259422,-4,1,-3,-32,-11,-39,-7,10
1763470474.9411721,2,-5,1,-14,-34,-19,-23,53
1763470474.9634633,-10,9,8,-19,12,12,-5,-16
1763470474.9866977,10,0,-15,-34,0,-9,-15,-8
1763470475.0008895,-4,-5,-10,-32,29,8,25,-31
1763470475.023532,7,4,4,-24,-25,0,17,-8
1763470475.0379064,0,0,6,26,-38,-34,-32,-31
1763470475.0460327,-2,-14,-15,6,25,-13,-27,-15
1763470475.0609698,-13,-11,-8,27,10,44,-26,3
1763470475.0835314,-2,-6,7,16,24,56,42,26
1763470475.0977426,-4,2,4,35,75,59,-8,14
1763470475.10593,17,8,7,-33,7,-17,7,-6
1763470475.1209989,-5,-9,-4,3,3,-59,-13,19
1763470475.1434731,9,5,-3,16,-2,10,1,-8
1763470475.1577115,2,1,10,-8,8,8,20,-27
1763470475.1659236,2,11,1,-24,-15,6,-16,-1
1763470475.1808965,-9,1,2,-15,-11,-38,-17,-14
1763470475.1884472,-1,-4,-4,-13,-14,24,-19,9
1763470475.2034988,-11,-7,-9,-22,6,50,14,-34
1763470475.2268305,9,-3,6,-2,3,4,12,-17
1763470475.241449,13,5,9,9,-18,-8,-30,34
1763470475.2636702,-9,4,0,-4,-43,-40,-30,24
1763470475.286716,0,3,-7,-36,-35,-48,-39,-11
1763470475.3010762,0,-4,-36,-10,40,57,11,-35
1763470475.3238413,-8,-12,-28,-38,14,8,44,-2
1763470475.3541598,-4,6,28,56,-7,14,-3,-9
1763470475.3609803,10,-11,-37,-64,-37,5,70,82
1763470475.3835502,1,-1,22,15,-22,-47,-14,44
1763470475.4069395,-12,3,1,-6,-1,14,-3,-33
1763470475.4210334,0,-5,-15,8,-14,30,-13,-12
1763470475.443444,-13,-40,-42,15,13,-4,50,-104
1763470475.466644,-12,-6,15,19,2,-6,-39,-34
1763470475.4811332,-6,17,21,13,-18,-21,-3,29
1763470475.5117428,17,12,27,14,-13,8,-14,22
1763470475.5270252,-3,3,11,-13,6,17,-8,0
1763470475.5409403,-8,-3,-15,-43,-25,-16,35,9
1763470475.563515,3,9,12,28,23,-18,-35,-23
1763470475.58663,-5,8,21,13,-7,-31,-18,-8
1763470475.6013691,0,-5,-30,-23,44,1,0,31
1763470475.6317544,2,-5,-16,-19,-10,4,-32,-16
1763470475.6465788,3,2,-6,-47,-5,-1,-16,0
1763470475.6609926,-16,-14,-5,1,10,-74,0,-11
1763470475.6838617,29,-2,-6,12,-22,43,94,8
1763470475.7067266,1,7,-4,22,6,23,-14,-13
1763470475.7291658,8,9,23,78,-24,-8,-39,13
1763470475.7433944,-20,-16,-3,-30,-16,0,16,6
1763470475.7666419,13,-1,-18,18,71,13,12,17
1763470475.789114,-7,0,-2,2,17,-23,-32,-23
1763470475.8034441,-3,1,10,-17,-16,2,20,24
1763470475.8257508,10,12,17,-12,-26,7,-26,-33
1763470475.8336422,16,-3,8,53,-23,20,-10,41
1763470475.841084,-9,-5,5,-23,-26,-27,-27,-24
1763470475.863485,5,0,-10,-4,15,-49,-33,10
1763470475.8867378,-2,0,6,64,78,37,6,47
1763470475.9004378,5,12,15,-20,-38,-3,36,-2
1763470475.9086533,-14,-9,-22,-17,81,78,-30,-3
1763470475.9237216,-8,-4,-15,-50,-32,38,-4,8
1763470475.9466338,-19,-5,8,24,-21,-6,16,-34
1763470475.9602814,-9,4,25,-12,19,84,-7,-33
1763470475.9685814,0,-5,-13,-32,5,-52,-32,-19
1763470475.983507,14,-5,12,-16,-47,-8,-9,1
1763470476.006638,4,6,-4,20,21,19,8,19
1763470476.0203128,-7,-17,-25,8,4,-35,-12,-29
1763470476.0285115,9,19,28,-7,52,-5,-28,-24
1763470476.0435617,8,-3,-26,-21,-18,-25,35,37
1763470476.0666118,-6,-11,-17,0,27,42,9,-2
1763470476.0802462,-2,-9,-18,-10,-60,-23,-19,-6
1763470476.0886405,8,4,14,-2,19,-7,16,-46
1763470476.1117334,23,1,8,2,31,30,5,-27
1763470476.1267881,-10,-9,-7,-27,-2,-19,-4,1
1763470476.1402507,-5,4,17,31,-6,-7,-19,11
1763470476.1484492,3,1,4,13,7,0,3,9
1763470476.1635385,0,11,10,10,23,-7,-11,2
1763470476.1860573,-13,-9,-27,21,71,7,2,-26
1763470476.2093017,-3,9,14,-29,1,-25,10,38
1763470476.231589,-16,-8,-6,4,-30,-25,2,-26
1763470476.2542589,2,4,5,15,-26,-12,0,4
1763470476.269212,10,5,2,14,-11,-65,63,-17
1763470476.2834651,-1,2,9,11,48,23,-22,44
1763470476.3060424,-1,-8,5,-21,-14,29,-15,-13
1763470476.329272,-6,-9,-10,29,-25,27,32,-21
1763470476.344012,-6,-6,-14,-47,-14,-2,-29,-36
1763470476.3741908,13,-1,-6,-32,6,20,11,80
1763470476.3898387,0,0,1,13,11,-32,-19,-19
1763470476.4036608,-14,-15,-28,45,42,50,7,-49
1763470476.4262152,-10,-9,-2,3,18,18,12,-19
1763470476.4495158,12,9,9,-5,-33,-21,-50,28
1763470476.463866,-11,-10,-38,-55,-4,-32,-42,-58
1763470476.4869804,22,20,31,12,16,69,68,14
1763470476.5091166,6,2,20,16,-18,-13,24,28
1763470476.5234828,4,-2,-14,-41,-29,-35,-27,-6
1763470476.5460842,3,-3,-3,18,-9,5,33,51
1763470476.5691724,-8,-10,-6,34,14,-20,5,-20
1763470476.5834684,-8,-12,1,-8,-23,-24,-30,-26
1763470476.6060555,1,5,-14,-38,-11,-61,11,14
1763470476.6292827,-3,-4,8,-12,34,43,15,4
1763470476.6437721,0,8,14,47,-8,0,-34,-23
1763470476.6660316,-6,4,6,19,44,55,13,6
1763470476.6893523,-6,-2,-4,-33,-18,-2,-7,-21
1763470476.7036932,21,8,3,-25,-26,46,8,29
1763470476.7259228,8,11,14,37,43,43,-5,12
1763470476.749141,-6,-7,2,38,0,24,-21,-5
1763470476.7634242,13,4,13,6,-26,-40,-23,14
1763470476.7860258,-2,2,8,-29,-7,-21,5,-11
1763470476.809255,-8,-5,-10,13,-4,-3,3,-12
1763470476.8232782,-7,3,7,9,-17,-24,-13,2
1763470476.8311253,-6,-11,-14,-13,-14,-7,-1,-18
1763470476.8460045,21,8,12,3,16,-13,6,-10
1763470476.8694453,0,9,8,48,-3,-10,-11,0
1763470476.882913,-13,-12,-12,-35,-13,-12,0,-3
1763470476.891126,3,-20,-3,6,-4,0,12,-11
1763470476.9062698,9,14,1,-10,-2,-9,5,-7
1763470476.929151,4,-4,-5,0,10,3,-9,5
1763470476.9427736,-7,-8,-15,-25,-17,-16,1,5
1763470476.9510405,5,5,-1,14,4,-6,5,-7
1763470476.974431,-21,-16,-14,3,1,-1,2,0
1763470476.9891286,-15,1,4,-7,5,8,6,-4
1763470477.002836,-11,-3,-3,-16,-7,-3,-4,-4
1763470477.0199587,3,3,-2,-13,-29,-8,3,-3
1763470477.0260873,8,2,6,-15,8,13,-1,2
1763470477.049326,8,8,2,2,-2,-11,-29,1
1763470477.0629349,10,-5,-10,-33,-31,-10,-8,-3
1763470477.071125,1,-1,8,10,-5,-12,2,-2
1763470477.0860696,-9,-11,-6,13,-4,-2,3,-1
1763470477.1182125,-2,-2,3,28,18,3,-1,1
1763470477.13311,-6,-9,-3,-15,-12,0,10,-1
1763470477.1398587,-21,-16,-14,3,1,-1,2,0
1763470477.1461039,-4,-2,6,35,11,-3,1,2
1763470477.1692889,7,2,-6,1,-8,-2,3,1
1763470477.1916935,-2,-3,-19,-34,3,-12,-2,-3
1763470477.2062445,0,3,-1,-8,1,-2,2,-1
1763470477.229323,0,-5,4,16,-4,11,4,1
1763470477.2518415,-3,7,-2,-6,-2,-3,-2,0
1763470477.2660792,16,7,6,-8,-14,-2,-3,1
1763470477.289292,-13,-2,-3,-6,-5,-2,2,0
1763470477.311902,-35,-3,2,-11,-5,0,3,-6
1763470477.326286,17,4,1,4,3,-1,-1,3
1763470477.3491695,-1,-1,-15,-6,-2,-1,2,-1
1763470477.3717172,3,-4,3,-4,1,1,3,-1
1763470477.3865566,10,0,2,0,2,0,2,-2
1763470477.4085023,2,-2,-2,6,10,-1,-2,-1
1763470477.4317284,-10,-3,-6,-1,5,-2,-3,-1
1763470477.4461355,-4,-5,2,-2,-7,-1,-2,-3
1763470477.4695103,4,5,3,2,-1,2,-1,1
1763470477.4909344,-8,3,4,3,2,2,-1,1
1763470477.4986122,6,3,1,-3,-2,-4,-2,0
1763470477.5065532,7,0,-1,-2,-5,-1,0,0
1763470477.528936,-3,-1,-3,0,-2,-1,0,-1
1763470477.5527732,-1,-2,-3,-1,1,-5,0,0
1763470477.5667014,-1,1,1,1,-2,2,0,0
1763470477.5884566,-9,-3,-5,-4,-4,-4,-3,-2
1763470477.6116955,5,-1,-2,2,2,0,-3,-1
1763470477.6259406,-3,-1,1,0,2,0,0,1
1763470477.64848,1,2,3,-13,-4,-1,0,0
1763470477.6716325,-1,-5,-2,11,-1,-2,-1,-3
1763470477.6864247,1,-1,-2,-12,-1,0,-1,-2
1763470477.7084787,-2,-2,0,4,0,0,0,-1
1763470477.7319708,-2,-3,-2,0,-1,0,0,-1
1763470477.7454193,0,-1,1,2,0,-2,-1,0
1763470477.753963,-3,0,-4,-3,0,-3,-3,-2
1763470477.7684531,1,0,-2,-3,-1,0,-1,-1
1763470477.7917197,-2,-1,-4,-3,-5,-3,-2,-2
1763470477.8053036,-1,-2,-2,-4,-5,-1,-1,1
1763470477.8210335,-2,-2,-3,-15,-2,-1,1,-2
1763470477.828525,-1,0,-1,2,5,4,0,-2
1763470477.8516352,-1,1,0,-1,2,-2,0,1
1763470477.8652933,-2,-2,1,1,0,-1,-1,-2
1763470477.8737428,-2,0,1,3,0,-1,-1,-1
1763470477.8885064,-2,-1,-2,-3,0,-1,-3,-1
1763470477.9116452,0,0,-2,1,0,-2,0,-1
1763470477.9252605,1,-2,-1,-1,-4,-2,-2,-1
1763470477.9334915,0,0,0,-3,-1,-4,-1,0
1763470477.948857,0,-1,-2,1,1,-1,-3,-1
1763470477.9635186,-1,-3,-2,-2,-4,0,-1,0
1763470477.9716132,0,-1,2,0,2,0,1,0
1763470477.985316,-2,-1,-2,-3,-3,-2,0,0
1763470477.9934702,-2,-2,0,2,1,1,-1,-1
1763470478.0086052,0,0,-1,-3,-4,-2,0,-2
1763470478.0321188,-2,-3,-2,-5,-6,-3,-2,-1
1763470478.0455337,-2,-1,-1,0,1,0,-1,-2
1763470478.0537167,-1,-1,0,-3,-3,-3,-2,0
1763470478.0685065,-1,-3,-3,-4,-3,1,-2,-1
1763470478.0917559,-2,-1,-2,4,9,-1,-2,-1
1763470478.1143596,0,2,4,1,-2,5,2,1
1763470478.1285412,-3,-2,-11,-3,-19,-4,-2,-2
1763470478.151833,0,-1,4,2,4,-3,0,-2
1763470478.1741848,0,0,2,1,-1,4,3,1
1763470478.1886556,-1,-1,-4,-7,-6,-3,-2,-1
1763470478.2116585,-1,-1,-2,-4,-5,0,0,-1
1763470478.233981,-1,0,-1,-11,-11,-4,-3,-2
1763470478.2484975,0,0,2,7,5,-2,-2,0
1763470478.2718647,-1,-1,-1,4,6,-1,-1,-2
1763470478.2942593,1,-2,0,0,4,-2,-1,0
1763470478.3085628,1,-1,0,-2,1,2,1,0
1763470478.3316882,-1,-2,0,0,1,-1,-1,-1
1763470478.354304,-3,-1,-2,1,1,-2,-1,0
1763470478.3768375,0,-3,-6,-6,-7,-1,-2,-3
1763470478.3918128,-3,0,0,1,-2,-2,-2,-1
1763470478.414509,-1,0,-1,-6,2,0,1,-1
1763470478.4287267,-1,0,-1,0,1,0,0,-1
1763470478.4517775,-1,-1,-2,-4,-9,-2,0,0
1763470478.4741306,-1,-1,0,3,3,-1,0,1
1763470478.4887195,-2,2,1,4,4,-2,0,-2
1763470478.5118456,1,0,-1,-5,-4,2,-2,-2
1763470478.5342808,-1,0,-1,-4,-7,-2,-1,0
1763470478.5480006,0,-2,0,-2,-4,-2,-2,0
1763470478.563098,0,1,0,11,12,0,0,-3
1763470478.5717406,0,-1,-3,3,8,1,0,-1
1763470478.5942762,-2,-1,0,-2,-3,-1,0,0
1763470478.607869,0,-1,-1,4,5,0,-1,0
1763470478.6167827,-1,-2,-3,-5,-10,-3,-2,-1
1763470478.6316876,-1,-1,0,12,14,-2,1,0
1763470478.6542387,-1,0,-1,-2,-1,2,0,-2
1763470478.6679747,1,-1,-2,-16,-24,-2,0,-1
1763470478.6842387,-1,0,2,1,-12,0,1,0
1763470478.6918619,-3,0,2,0,-7,-2,-1,-1
1763470478.71411,0,-3,-1,0,2,-1,-1,-1
1763470478.744292,-2,1,-1,0,5,0,0,0
1763470478.751764,-3,-1,0,8,10,-1,-3,-1
1763470478.7741818,0,-1,0,2,4,-2,-2,-2
1763470478.788042,-2,-1,0,-7,-11,-2,-1,-1
1763470478.7971108,-1,0,-2,-2,0,-2,-1,-2
1763470478.8117404,-1,-1,2,2,5,-2,1,-1
1763470478.8342583,-2,-2,-5,-10,-3,-2,-1,0
1763470478.847934,-2,-1,-2,-6,-7,0,-2,-1
1763470478.8578632,-1,0,-1,3,5,3,0,1
1763470478.8718157,0,0,-1,1,0,-1,1,0
1763470478.894293,-1,1,2,10,10,1,-1,0
1763470478.916722,-1,-2,0,1,-2,0,0,-2
1763470478.9324653,-1,-1,-1,-3,-7,0,-2,1
1763470478.9545262,-1,-1,-3,-3,-5,0,1,-1
1763470478.967923,-1,-2,-5,-6,-2,-2,-2,-2
1763470478.9767451,0,-2,1,8,5,-3,0,-3
1763470478.9917178,0,-2,-2,2,6,-2,-2,-2
1763470479.0141828,-2,-1,0,8,2,-1,-3,-1
1763470479.0366561,-1,1,2,-6,-3,-1,-1,-1
1763470479.0503254,-2,-2,-1,0,-1,1,0,-2
1763470479.0593128,-1,0,0,1,-1,-1,0,0
1763470479.0742075,0,-2,-1,0,0,-2,-2,0
1763470479.0966792,-1,-1,-2,-3,-3,-1,0,0
1763470479.1122456,-1,0,-3,-2,-1,0,-1,-3
1763470479.1179218,-1,0,-2,3,9,0,-1,0
1763470479.1341312,-2,-1,3,-1,-7,-3,-1,0
1763470479.164218,-1,-2,-3,-5,-4,-2,0,0
1763470479.1709604,0,-1,0,0,2,0,-1,-2
1763470479.1778796,-1,-1,0,-5,-3,-2,-1,0
1763470479.1941454,0,-1,-1,2,1,-1,-1,-1
1763470479.216743,-1,0,-1,1,-3,-2,-1,-2
1763470479.2391603,0,-2,0,2,8,1,0,1
1763470479.2542157,0,1,0,4,1,-1,-2,-1
1763470479.2768397,0,-1,0,-3,-4,0,-1,0
1763470479.2911537,1,0,-1,-7,-4,-2,1,-1
1763470479.297824,-1,-2,-2,-2,1,-1,0,0
1763470479.314275,-1,0,1,11,12,0,-1,-1
1763470479.336658,-3,0,0,-8,-7,0,0,1
1763470479.3511324,-2,-3,-2,-3,-3,0,-1,-1
1763470479.357811,0,1,-2,-1,0,0,-1,-2
1763470479.3742635,-3,0,-3,-7,-6,-1,-3,-1
1763470479.3968854,-1,-1,-1,-5,-4,-1,-1,0
1763470479.411298,1,-1,1,-1,-4,-1,0,0
1763470479.4181564,-2,-1,-1,-2,3,-1,-1,-1
1763470479.4417048,-2,-2,-3,-10,-12,-4,0,-3
1763470479.4567153,-1,0,-1,-2,-1,-1,0,0
1763470479.4712286,-2,-1,-2,-1,3,-2,-1,-1
1763470479.4781213,0,-2,-2,1,2,-1,-1,-1
1763470479.4943147,-1,-3,-2,0,1,-1,-1,0
1763470479.5167046,-1,-1,-2,3,4,-1,-2,-1
1763470479.5304186,-1,-2,-1,3,3,1,-1,-3
1763470479.539297,-1,0,0,0,-5,-1,0,1
1763470479.554272,0,-1,-1,2,3,1,0,-1
1763470479.576781,-1,-2,-1,0,-6,-1,-1,0
1763470479.5907419,0,-2,-2,-2,0,-1,-1,-3
1763470479.5995505,-1,-1,-2,-2,-2,-1,-1,-1
1763470479.6141548,0,1,2,3,-1,1,2,0
1763470479.6367702,-1,-2,-1,-1,-1,-1,-2,0
1763470479.6667278,-1,1,-3,-1,1,-3,-1,-1
1763470479.6742165,0,-2,2,15,21,0,-2,0
1763470479.6968498,-1,-2,-2,-4,-9,-2,-1,-1
1763470479.719216,-1,-1,0,-4,-5,-1,-2,-1
1763470479.7343209,0,-2,-3,-2,-2,0,0,0
1763470479.7642462,-1,-2,-2,-4,-2,-1,0,-1
1763470479.7705612,1,0,-2,-8,-8,0,-1,-1
1763470479.7795024,1,-1,-1,-2,-6,-2,-1,-1
1763470479.7949386,0,-1,-2,-3,-6,-3,0,-2
1763470479.816848,-1,-1,-2,-4,0,1,-1,-1
1763470479.830387,-1,1,1,2,2,-3,-2,-1
1763470479.8393836,-1,-1,1,1,5,0,0,0
1763470479.8543081,0,-2,0,2,0,2,-1,-1
1763470479.8767867,-2,1,3,13,16,1,-1,-2
1763470479.8903022,0,-2,-2,-5,-8,-2,-2,-1
1763470479.8993175,-3,0,0,6,-3,-1,1,-1
1763470479.9142945,-2,-2,-3,-1,-3,0,-1,-1
1763470479.9369674,-2,1,0,-1,1,-1,-1,0
1763470479.950336,-1,-2,-1,-5,-3,-2,-1,-1
1763470479.9593794,-3,-2,-4,-1,-2,-1,0,0
1763470479.974229,0,-2,-1,-8,-6,-1,-1,-1
1763470479.9968145,-2,-2,0,-1,-5,0,0,-2
1763470480.0192657,1,-1,-2,-4,-4,-2,-1,0
1763470480.0333104,-1,-2,-2,1,1,-1,0,-1
1763470480.0417793,0,-1,-4,-1,-3,-1,-2,-1
1763470480.0570416,-2,-1,-1,2,2,-1,-1,-1
1763470480.07947,5,-1,4,0,0,0,-2,-3
1763470480.0937085,-2,-3,0,4,5,-3,-1,-1
1763470480.100352,-42,3,16,5,0,2,-4,0
1763470480.116743,-3,-22,-25,-15,-11,-3,0,11
1763470480.139222,-2,9,8,6,4,0,0,-1
1763470480.1535532,7,4,2,-2,-3,-1,-1,-3
1763470480.1603618,1,-2,-5,-4,-3,-1,-1,-5
1763470480.1842713,0,8,5,-2,-5,0,-2,-2
1763470480.1992636,-5,-9,-15,-6,-7,-1,-4,-4
1763470480.2128792,-71,-4,5,5,4,-6,22,5
1763470480.2220328,-19,0,5,2,14,-1,0,16
1763470480.2368069,22,15,11,7,-6,-2,3,0
1763470480.2598019,-16,-43,-18,-11,-2,-3,-7,-4
1763470480.272911,22,6,9,5,17,0,-7,-1
1763470480.2818048,5,-8,-3,-5,-6,-4,0,-3
1763470480.3042126,28,-3,-1,-7,-8,-4,-1,2
1763470480.3194797,10,6,10,22,22,7,-3,-2
1763470480.332875,-18,5,-4,-5,-4,3,-1,-7
1763470480.349343,0,-5,1,-14,-22,-4,0,-5
1763470480.3642304,3,8,-5,-10,-8,-1,-5,-1
1763470480.3793187,11,-2,0,-3,8,-3,-5,-5
1763470480.3930073,-8,4,7,0,10,8,11,3
1763470480.401828,-1,-4,2,13,21,15,0,3
1763470480.4167666,3,-6,-8,-9,-26,-10,-3,-3
1763470480.4392142,-3,-1,-7,-1,-4,7,-2,-4
1763470480.4528868,-5,-1,-3,-3,0,-9,-9,-5
1763470480.4618888,-17,-6,2,1,-8,-4,-15,-2
1763470480.476795,23,13,4,5,-6,-6,18,85
1763470480.506849,-29,8,2,22,27,74,66,46
1763470480.5128279,58,23,3,-60,18,-15,9,32
1763470480.5219715,-75,-3,30,12,-5,-88,-95,-128
1763470480.5368013,46,-7,2,-9,-67,-68,46,-105
1763470480.5591986,-75,-64,-97,38,16,-53,-112,-128
1763470480.5728657,-5,11,11,-12,-8,16,9,-22
1763470480.581798,-3,-13,-30,-111,22,92,106,53
1763470480.5970573,-21,-6,20,-5,23,-33,2,31
1763470480.6194048,14,-18,-13,3,-1,-62,6,119
1763470480.6329806,-19,27,49,36,23,0,-51,-60
1763470480.6419606,-1,21,47,-16,29,20,-2,47
1763470480.6569781,14,-5,10,5,-19,-15,9,21
1763470480.6870017,7,14,31,-10,9,33,-34,54
1763470480.69313,34,17,2,-37,40,40,-1,-17
1763470480.7019963,38,26,35,-4,-14,-20,-45,21
1763470480.7167687,22,20,-1,3,0,4,-4,-87
1763470480.7392817,6,-12,27,37,75,14,24,-68
1763470480.752971,-23,-19,-67,-66,-95,10,-17,51
1763470480.7618685,48,72,83,89,-1,37,-29,-94
1763470480.7843106,-4,-4,59,-22,16,-13,18,46
1763470480.7992237,-11,-6,70,39,-4,-4,-3,-66
1763470480.8130329,-29,13,14,-4,-18,18,-3,51
1763470480.8293834,10,-45,-46,-17,-67,-63,27,-63
1763470480.8361137,-13,-5,-14,13,-34,88,-20,-124
1763470480.84295,-1,6,18,-28,-1,56,43,1
1763470480.8593352,5,35,7,1,-69,24,-46,-78
1763470480.873128,-21,34,19,27,41,-67,-25,53
1763470480.8818808,-62,-78,57,78,17,-33,-38,-27
1763470480.8962893,-20,-67,-87,59,-27,-112,-15,-113
1763470480.9029458,25,122,63,-36,-21,-53,-22,-106
1763470480.9207733,-64,-3,4,-87,-15,-25,-49,-96
1763470480.9414625,-10,-19,-35,-20,13,-9,-11,-50
1763470480.947889,-44,-23,-88,-106,19,-5,-54,127
1763470480.9560626,68,-57,-86,-59,44,127,87,65
1763470480.9628725,24,37,-8,30,2,-86,32,-38
1763470480.9793901,8,-36,-24,-7,-14,4,30,-24
1763470481.001697,-15,33,47,14,14,86,20,22
1763470481.0160637,26,20,-29,-3,-15,-16,10,-37
1763470481.023234,5,-9,-15,76,52,39,-13,7
1763470481.0389466,-32,13,37,75,63,-37,6,34
1763470481.0454211,10,-9,8,20,15,70,45,-2
1763470481.0616577,14,-25,-28,-16,-25,-43,-28,95
1763470481.0762067,-14,13,-36,34,-48,-76,-28,-80
1763470481.0830505,-42,-23,-23,-36,-42,-51,-18,-101
1763470481.1067166,14,-15,-10,-40,-14,-28,-32,85
1763470481.1216958,65,47,65,27,31,56,74,109
1763470481.1360402,2,0,-11,-8,-16,-3,53,115
1763470481.1430507,-29,-2,0,-35,-5,26,12,16
1763470481.1595736,-45,-1,6,-17,31,35,-33,-121
1763470481.1816583,16,-1,-7,-39,-32,-28,-46,-2
1763470481.196328,23,-11,23,34,36,47,-24,-75
1763470481.2031567,-27,6,14,17,-47,119,4,-77
1763470481.2197635,-17,2,12,-11,-21,-28,-18,-12
1763470481.2416625,19,13,-25,-65,-19,-15,52,100
1763470481.2562885,-20,-8,12,-14,12,3,-18,63
1763470481.2628675,-9,4,18,-33,43,12,38,-13
1763470481.2792041,-30,-30,-9,50,23,-1,-10,-105
1763470481.3017793,-7,16,43,34,3,-32,-3,-61
1763470481.3161724,9,-7,-19,14,-17,43,23,-52
1763470481.3231525,0,20,-9,-43,-5,-53,2,85
1763470481.339663,7,14,7,4,49,-28,-39,-115
1763470481.3618495,-10,-7,8,-31,-22,31,-34,-1
1763470481.3758855,-3,28,8,-7,29,100,16,24
1763470481.3843873,-4,-8,-13,-23,33,72,-40,-51
1763470481.3993256,18,-7,-11,35,-34,-10,-74,-51
1763470481.4217298,-10,-3,19,40,40,-70,-20,-67
1763470481.4354484,-17,-14,-4,-46,-86,-78,118,-1
1763470481.4444904,5,7,36,65,-36,-72,67,-73
1763470481.4594932,3,-50,15,80,0,30,-18,-7
1763470481.4808981,11,15,-37,-7,-18,46,54,-19
1763470481.4895074,37,22,32,41,39,10,68,-13
1763470481.495597,2,-13,-29,-62,40,-5,-44,-39
1763470481.504561,-17,3,14,43,-5,-22,-10,-17
1763470481.519474,-14,-16,-17,34,27,-40,-25,17
1763470481.5419266,13,8,-29,24,-6,3,-32,-55
1763470481.5555632,-20,12,-14,-100,-47,-33,-46,-31
1763470481.5643754,16,-12,-25,-2,-10,75,61,102
1763470481.5793104,-20,-5,4,1,0,9,36,-6
1763470481.6017253,-5,-6,-25,-54,0,2,-22,58
1763470481.6153865,-14,28,29,43,-1,-1,3,-4
1763470481.6243236,-27,-28,-67,-16,-22,-24,-17,-27
1763470481.6397312,8,5,23,-38,-4,11,16,54
1763470481.6624823,8,4,6,12,-26,44,38,12
1763470481.6756408,33,25,31,-9,-60,-6,39,24
1763470481.6847816,-13,7,11,-26,-63,-43,-18,-14
1763470481.70688,2,6,12,-22,-3,-49,-38,-26
1763470481.721793,-27,-6,5,-2,-8,-6,-20,-13
1763470481.7355754,1,-9,-25,91,37,7,7,45
1763470481.7520535,-20,-8,-15,-25,-11,-53,-99,-92
1763470481.759351,-7,-1,3,57,79,78,61,14
1763470481.782027,17,-6,11,-48,21,88,13,-50
1763470481.7955146,-18,-14,20,94,21,-12,14,80
1763470481.8043597,-23,-13,-22,-65,-67,23,35,-18
1763470481.819236,32,9,-3,-18,9,-28,-40,-31
1763470481.8417752,-33,-11,43,43,-3,64,19,-128
1763470481.855465,3,4,-11,-55,-6,-97,-45,35
1763470481.8644023,-39,-25,-7,17,-3,-26,-52,-13
1763470481.8785326,20,-15,-35,22,-28,-47,-9,35
1763470481.88538,-11,9,14,16,-6,20,17,-16
1763470481.9018402,-4,3,-5,-32,-12,-29,-18,14
1763470481.9244227,4,-7,-26,7,-3,6,-18,-47
1763470481.939339,23,28,32,19,-16,-22,55,113
1763470481.9696877,-33,-20,-45,-32,-18,-67,-18,-38
1763470481.9849334,-6,5,5,-10,2,15,-20,1
1763470481.999446,-5,-17,0,-8,13,-52,11,-19
1763470482.0217435,2,4,11,-41,-71,7,-23,-23
1763470482.044737,-24,-12,-3,-23,-23,-16,-24,-53
1763470482.0588808,0,-15,-12,-37,22,56,-23,12
1763470482.0657506,16,12,-21,-67,-32,-27,-23,53
1763470482.0817246,10,2,-25,-5,29,98,0,103
1763470482.103291,7,-26,-31,-38,9,-28,36,55
1763470482.1118119,15,11,26,29,7,23,-47,-16
1763470482.126713,0,13,-10,-27,-17,-52,12,52
1763470482.1418622,-3,12,11,20,-34,-9,-44,-84
1763470482.1632557,18,9,19,65,15,19,-17,-54
1763470482.1718774,15,-2,-16,18,-7,11,-6,28
1763470482.178591,-26,-5,5,58,-2,-78,20,22
1763470482.1853387,7,-6,42,50,12,-38,4,-28
1763470482.201765,6,17,11,11,6,75,104,58
1763470482.2244072,10,9,6,-101,-8,-18,-17,-42
1763470482.2467754,18,18,27,4,15,20,-8,-2
1763470482.2619205,-1,-13,0,10,3,-7,37,1
1763470482.2917147,-23,-25,-76,-47,-21,34,12,-9
1763470482.3072915,-28,27,19,11,-4,-20,29,3
1763470482.3217518,3,5,16,3,25,-24,-29,-53
1763470482.3444138,-8,-11,2,62,-19,19,-28,-9
1763470482.3585553,-15,-21,14,101,-21,-18,-44,-117
1763470482.3654392,-39,-7,18,-14,-48,-18,-42,-55
1763470482.3822708,-1,-1,7,19,-17,-31,-4,0
1763470482.4044318,10,5,-32,-128,22,-33,-63,-33
1763470482.4179711,23,8,13,-27,63,40,18,-17
1763470482.427049,33,5,-1,-16,99,83,-1,31
1763470482.4417636,-14,5,-2,34,-7,30,11,57
1763470482.4643533,-11,0,8,76,-17,12,-8,7
1763470482.4781494,23,21,-1,-27,-19,51,30,-2
1763470482.494356,20,44,30,25,-55,4,31,29
1763470482.5017843,9,-38,-16,35,12,-6,-59,-52
1763470482.5243075,51,13,2,-24,1,57,-14,34
1763470482.537849,-33,0,-11,-43,-4,-107,-10,-15
1763470482.5468526,-13,10,38,38,-13,-51,33,-52
1763470482.5618718,38,-10,-41,18,52,72,28,64
1763470482.584337,-36,-25,-22,-47,48,-47,-25,-63
1763470482.5979118,13,2,34,8,-17,-35,-2,70
1763470482.606911,4,19,44,-11,-10,91,10,-20
1763470482.6294541,-25,-26,-15,63,-4,-19,-8,21
1763470482.6444082,-4,5,12,-52,12,73,38,-33
1763470482.65791,-10,4,3,0,-44,-62,0,-12
1763470482.6668477,28,19,-1,12,21,55,28,15
1763470482.681758,9,12,28,-31,-8,3,15,-6
1763470482.7049277,-17,-6,-11,-62,-34,18,0,-53
1763470482.7267616,-5,13,13,-32,-55,-32,-13,-34
1763470482.741881,91,46,10,48,-6,-1,31,63
1763470482.7643852,-7,-9,12,71,-23,-13,-4,27
1763470482.777906,-19,-17,-27,48,94,-33,-6,-37
1763470482.7869165,33,7,1,-3,-8,52,-13,84
1763470482.8019109,-49,-16,28,-35,25,20,6,-128
1763470482.8243723,8,-1,-20,-27,-32,-23,-25,15
1763470482.8467278,-12,5,-11,28,-10,5,55,-51
1763470482.861806,-40,-21,-7,27,-8,-62,-23,-16
1763470482.883495,-1,8,36,-13,-22,-11,-3,43
1763470482.8921516,-5,-22,-10,94,12,56,8,18
1763470482.9069076,1,16,15,61,52,67,54,36
1763470482.921743,22,-23,-25,12,-32,-2,-3,127
1763470482.95959,2,29,4,-108,-15,-19,-11,23
1763470482.9670799,21,9,12,23,-28,53,-1,-59
1763470483.005738,-16,-23,-50,8,15,60,5,-36
1763470483.011867,-6,-9,-1,32,20,26,-3,-103
1763470483.0269036,-3,2,14,-12,-3,23,22,67
1763470483.0493548,-19,11,21,-35,-1,-30,-2,-22
1763470483.06433,-28,-15,-19,-69,-35,-27,-46,13
1763470483.0867956,15,4,19,-2,-12,10,20,15
1763470483.1011162,-7,-2,-1,45,43,2,-15,-12
1763470483.1080053,46,15,12,-34,-21,-57,-15,-7
1763470483.1244705,6,2,6,-6,26,46,11,-59
1763470483.1469343,-14,-8,18,-49,-36,-2,2,-55
1763470483.161292,-7,0,7,9,-5,-11,-31,-50
1763470483.1680706,-6,3,28,36,12,-14,-27,20
1763470483.1842525,48,12,-24,-15,23,-5,-10,75
1763470483.206815,-28,-20,-1,9,19,-4,27,-38
1763470483.2294645,-10,-3,1,49,6,8,-28,-11
1763470483.2442386,6,-4,-38,-4,2,-3,-9,31
1763470483.266848,-20,3,-12,7,21,-17,-18,-85
1763470483.2810411,-3,1,3,5,62,3,9,39
1763470483.287803,3,3,-11,33,44,38,9,40
1763470483.3045201,-14,2,-8,71,-4,-20,-15,4
1763470483.326785,11,-17,-21,-63,5,-12,44,-20
1763470483.340422,17,-8,-11,-2,6,25,-11,-18
1763470483.3493526,6,4,-6,-36,7,-32,-15,-58
1763470483.3633034,48,18,22,29,-29,7,-14,67
1763470483.3721354,-37,-13,-14,8,1,7,9,-76
1763470483.386933,-30,-4,28,4,-20,1,3,-62
1763470483.4005222,-12,-9,-12,-7,-42,-40,-14,43
1763470483.4092944,26,-15,21,75,10,-9,7,101
1763470483.4243405,-17,6,25,27,-55,2,-43,-49
1763470483.4468777,26,6,-5,-15,18,10,19,-22
1763470483.4605584,-4,-13,-25,-44,-16,-11,27,8
1763470483.4694464,9,-5,-18,10,19,-28,-22,68
1763470483.4843283,0,9,19,-12,32,2,-25,12
1763470483.514372,19,1,-41,1,5,-24,15,33
1763470483.520422,-22,-17,-9,52,11,-3,-6,-51
1763470483.5293338,-9,6,-5,-29,23,26,-11,-4
1763470483.5517473,-18,-8,-20,-6,0,-9,-14,7
1763470483.5667613,-2,2,31,22,-4,28,15,1
1763470483.5892234,35,15,-4,-14,6,47,36,18
1763470483.604307,-2,-5,-32,-102,-1,2,13,74
1763470483.6344721,-12,-3,23,3,-13,-32,-21,-26
1763470483.6404798,-3,7,4,5,21,1,-8,-36
1763470483.6494386,1,-8,12,33,-33,-15,-7,-72
1763470483.6642616,-13,-20,-5,-1,22,23,-12,-33
1763470483.6868916,15,9,29,33,-11,3,26,64
1763470483.700448,-30,-15,-15,10,-8,-6,3,-56
1763470483.7093234,-1,1,17,42,-23,6,1,8
1763470483.7252185,7,4,8,-74,-26,-6,-41,23
1763470483.7476122,2,10,10,11,-9,31,-4,-70
1763470483.7605543,-22,-23,-14,3,39,-39,-25,11
1763470483.7694573,-12,2,-12,-55,-6,26,18,-12
1763470483.784238,18,3,-9,36,3,-22,55,36
1763470483.8067136,-8,11,28,64,18,16,-10,-37
1763470483.829217,11,4,-12,-4,13,-21,-11,-5
1763470483.8442922,10,4,8,-32,-52,-21,5,78
1763470483.8666954,-4,3,-2,29,52,43,33,-58
1763470483.8892353,-8,-9,-11,3,-6,-8,-18,-44
1763470483.9117086,-3,-5,-13,-20,-21,-21,-3,28
1763470483.926757,-15,2,-16,-36,-44,-14,-17,-50
1763470483.956796,-7,-7,11,25,-4,-23,-16,-52
1763470483.9717138,9,8,-8,-4,-9,-7,-20,-29
1763470483.986755,14,11,28,-31,-33,-16,13,72
1763470484.0093575,3,-1,3,12,19,24,35,-46
1763470484.0235965,-6,-3,12,49,21,9,65,16
1763470484.030573,1,7,12,9,7,-3,12,-7
1763470484.0471358,-5,-12,-10,15,24,17,-12,45
1763470484.0692608,13,5,6,-34,-5,27,-32,-82
1763470484.0835457,-18,3,-17,-44,2,22,21,-13
1763470484.0903971,12,5,-15,-40,6,-3,-5,-30
1763470484.1068056,18,4,11,70,-22,-13,-4,19
1763470484.1294293,-25,-10,-8,40,52,65,-14,123
1763470484.143728,-3,-6,-16,-71,-58,-41,-8,-7
1763470484.1506135,-15,-7,9,-30,-26,-23,7,12
1763470484.166965,-10,-6,-13,-31,1,-21,-20,-33
1763470484.1893494,4,0,12,-11,4,-29,-26,15
1763470484.2035823,0,6,6,2,5,17,17,-57
1763470484.2105157,5,3,15,39,4,13,9,9
1763470484.2344406,-2,-11,-7,-53,-54,-4,-12,74
1763470484.249864,-8,-13,-10,21,12,16,24,-89
1763470484.2631507,-7,6,3,16,15,32,-47,-39
1763470484.272825,-3,-12,-30,31,40,-8,7,-24
1763470484.2867186,6,2,4,1,3,-30,-8,12
1763470484.3094308,6,-6,0,32,14,-15,-1,64
1763470484.3230708,-4,12,17,12,-10,1,21,-4
1763470484.33197,-7,3,-22,-8,26,16,1,-20
1763470484.3468597,-11,-7,-13,-23,-12,-32,-21,-7
1763470484.3693168,8,4,-5,-22,25,-17,17,58
1763470484.3923273,25,-1,3,-21,12,-15,-36,21
1763470484.4068239,-5,-11,-13,4,-57,-25,-13,-28
1763470484.4292626,-1,2,10,38,3,5,-4,-22
1763470484.4428723,10,8,8,-21,-18,-4,31,-23
1763470484.4518037,-29,-13,16,25,-22,-72,-30,-6
1763470484.466779,18,11,38,40,48,48,18,91
1763470484.48927,-19,-12,-18,3,-27,-29,-8,-44
1763470484.5120502,-1,-12,-44,-10,3,53,5,72
1763470484.5270207,-24,2,12,21,4,-49,-17,-100
1763470484.549473,-1,-5,-15,-32,4,22,-11,-23
1763470484.5629995,8,2,2,-9,-4,19,21,-5
1763470484.5719655,-8,-23,-59,-109,-12,-8,-19,6
1763470484.5869238,-26,-12,-3,-13,39,-16,1,-15
1763470484.6093574,11,1,-3,3,-16,-6,-3,-12
1763470484.6230392,-4,-1,11,7,25,58,21,-12
1763470484.63189,-10,-6,-12,-70,-1,-11,-4,-10
1763470484.6467445,9,-13,-25,-18,-17,-44,10,40
1763470484.66934,-5,-5,-31,-74,-12,-24,-21,-93
1763470484.683018,5,4,2,-18,-10,-1,-22,-5
1763470484.6919453,1,7,29,8,-32,-33,-6,-37
1763470484.7144113,12,12,25,33,9,-3,12,-8
1763470484.729686,2,5,13,80,-11,60,1,-1
1763470484.7515764,-24,-14,-16,26,23,-26,3,-4
1763470484.7583532,32,16,-5,-15,1,-8,4,102
1763470484.7668464,11,7,24,4,-13,20,-2,72
1763470484.7893353,14,-3,-17,-6,24,49,71,-35
1763470484.8119402,-20,0,13,-5,-22,-24,-37,-54
1763470484.826736,13,5,-4,-30,1,-12,0,46
1763470484.8492303,-1,-2,-10,-17,5,9,-22,-14
1763470484.8717434,-5,-6,-14,-12,-9,-3,-1,52
1763470484.8860755,-6,-2,0,4,-8,-23,-29,-10
1763470484.9004395,4,4,6,23,20,-9,10,22
1763470484.909252,-8,-10,-1,17,-21,-20,-3,-16
1763470484.9317555,-4,5,7,-1,-4,-8,3,14
1763470484.9461365,-10,-10,-12,-12,-11,-11,2,0
1763470484.952924,-18,25,18,-3,-9,-8,3,-1
1763470484.9769037,-12,-27,-4,4,8,-2,-3,-14
1763470484.9919565,-7,4,13,41,1,-8,-4,-2
1763470485.0056384,2,-5,-9,-2,-5,-11,-2,-7
1763470485.0219328,19,-14,8,9,30,14,14,0
1763470485.0368757,13,11,0,23,3,-4,-27,0
1763470485.0519674,1,14,0,-27,-14,-5,-1,5
1763470485.0656374,-10,-1,-6,-6,14,11,10,-2
1763470485.074524,-15,-16,-8,41,4,2,3,0
1763470485.0895414,14,4,-15,-40,-25,-4,19,-1
1763470485.1119072,-4,-3,12,11,9,-7,-12,-5
1763470485.1254601,-3,1,5,-27,-3,3,-5,1
1763470485.1344109,1,17,-3,-8,1,0,12,9
1763470485.1492712,-2,0,19,14,5,-2,4,0
1763470485.1792846,-10,11,-3,29,4,-1,3,-1
1763470485.1854718,6,32,10,6,9,1,0,0
1763470485.1945026,2,-6,-1,-11,6,2,-10,-3
1763470485.2245975,4,-9,-4,-14,-8,-2,2,-1
1763470485.2393425,3,-4,0,-2,-11,-5,0,1
1763470485.254319,-2,-13,-5,-18,-7,-2,0,-4
1763470485.2694314,-1,-3,12,21,12,3,0,0
1763470485.2994256,1,1,0,2,3,3,0,-1
1763470485.3055785,1,-4,-5,9,-9,-2,0,-2
1763470485.3144596,-4,0,1,-2,-4,-1,-3,-1
1763470485.3292997,-2,-1,-7,-19,-10,3,1,0
1763470485.3593678,-15,-7,2,4,4,0,-1,-5
1763470485.3655448,4,-8,-2,-5,5,-1,-2,-1
1763470485.3743894,0,-2,-6,7,14,1,1,0
1763470485.3896608,3,1,-13,1,3,-4,-1,0
1763470485.4030492,-3,-3,1,3,-6,-3,0,-1
1763470485.411991,0,3,2,0,2,-1,0,-1
1763470485.4253762,1,-3,-2,-6,-8,-5,-4,0
1763470485.4351242,2,-1,8,0,1,1,1,1
1763470485.4567804,2,1,0,-8,-7,1,-1,-1
1763470485.471796,2,4,6,4,1,-1,1,0
1763470485.4942894,-1,-5,-2,1,0,0,-1,0
1763470485.509462,0,-5,-5,0,1,-2,0,-3
1763470485.5319374,-2,1,-3,1,6,3,2,1
1763470485.5454466,2,0,2,23,25,15,0,2
1763470485.5544748,-3,2,5,1,9,6,0,-1
1763470485.5687854,0,2,0,-8,-9,-6,-4,-3
1763470485.5754368,-3,-7,-7,-1,-1,-2,-1,-2
1763470485.5918982,-3,2,-1,-6,-4,-3,-3,-2
1763470485.6053789,-1,-2,-2,-7,-8,-4,-3,0
1763470485.6144083,-1,-3,-1,-4,-4,-1,1,0
1763470485.6368365,-2,-4,-2,0,-3,-2,-2,-2
1763470485.651969,-3,-3,-2,-10,-15,-6,-3,-1
1763470485.6743727,-1,-3,-3,-2,-2,0,0,-1
1763470485.6885426,0,-2,-4,0,1,-4,0,-2
1763470485.6954706,-1,-2,-1,-2,-2,-1,-2,-2
1763470485.7117484,-1,1,1,0,1,-1,-2,0
1763470485.7345512,0,-3,-2,1,1,0,-1,-1
1763470485.748722,1,1,0,-1,1,0,2,-1
1763470485.7557993,-3,-1,-1,-5,-11,-4,-2,-1
1763470485.7715194,0,1,1,14,16,1,1,1
1763470485.7780068,-1,-1,-2,0,-2,-1,0,-1
1763470485.7943883,-3,-2,-1,-2,-7,-3,-2,-1
1763470485.8091216,0,-1,-1,-2,1,0,0,-1
1763470485.8159692,-1,0,1,-1,-1,2,0,-1
1763470485.8318603,0,-1,-1,-1,-2,-3,-1,-2
1763470485.8545065,-1,-1,-2,-5,-5,2,1,0
1763470485.8686945,-2,-1,-2,-8,-10,-2,-1,0
1763470485.875543,0,-2,-1,-1,-1,-2,-1,-2
1763470485.891785,-2,0,-2,0,0,-1,-1,-1
1763470485.9143062,-1,-2,-3,-2,0,-3,-2,-1
1763470485.928608,-1,-1,-2,0,-1,-1,-1,-1
1763470485.9353604,-2,-1,0,-3,-3,-2,0,1
1763470485.9517286,-1,-1,0,0,-2,-2,-1,-1
1763470485.9743981,0,-2,1,-4,-3,-2,0,1
1763470485.9886894,1,0,-1,-8,-6,-1,-1,-1
1763470485.995519,-3,0,0,1,-2,-1,-1,-2
1763470486.0121057,-1,-1,-1,1,2,-1,0,-1
1763470486.0343816,-2,1,-1,0,2,-2,-2,-2
1763470486.0486386,-1,-2,-2,-2,0,0,0,-1
1763470486.0554602,1,-1,-1,-2,-1,-1,-2,0
1763470486.0718222,-2,-1,-3,0,-1,0,-1,-1
1763470486.093414,-1,-2,2,1,1,0,-2,0
1763470486.102022,0,0,-2,-5,-3,0,-1,0
1763470486.1085851,-2,-1,-1,1,0,-1,0,-2
1763470486.115541,1,-2,-1,-1,1,-2,-1,0
1763470486.1318111,-1,-2,0,-1,0,-2,-2,0
1763470486.1542525,-1,-1,-1,-1,0,1,1,-1
1763470486.1680272,0,0,-2,-2,-2,-1,0,0
1763470486.1773028,-1,0,-1,-1,1,1,-1,0
1763470486.1920402,-2,-1,-2,-1,-1,-2,-1,-1
1763470486.2144785,-1,-2,1,-1,-1,2,-2,0
1763470486.2280996,-2,-3,-2,1,0,-2,-2,-2
1763470486.2373574,-1,-3,-3,-4,-3,0,0,-1
1763470486.252138,-1,-1,0,2,0,0,-1,-1
1763470486.2743452,-1,0,0,-3,-1,-3,-1,0
1763470486.288173,-1,-1,-2,-1,-2,-1,-1,0
1763470486.2975,-2,1,1,-1,-1,0,-2,-2
1763470486.3119388,0,-1,-1,-1,-1,-2,-1,-1
1763470486.3343759,0,0,1,-1,-2,0,-1,-1
1763470486.348049,-2,-1,-1,-1,0,0,0,0
1763470486.3572023,0,1,-1,-1,-2,-2,0,0
1763470486.371119,0,0,-1,-1,-2,-1,0,-3
1763470486.3795433,1,-2,0,0,-2,-1,0,-1
1763470486.3945742,0,-1,-1,-3,-1,-1,-2,0
1763470486.4079769,0,-1,-2,-2,-1,1,-1,-1
1763470486.4244761,1,-2,-2,0,0,-2,-2,0
1763470486.4317691,-1,-1,0,1,-1,-1,0,0
1763470486.4542615,-2,-2,-2,-1,-1,-1,-2,-2
1763470486.4679637,0,-1,0,0,-1,-2,0,-2
1763470486.476907,-1,0,-1,0,0,0,0,0
1763470486.4918015,-1,-1,-3,0,-1,0,0,0
1763470486.514286,-2,-2,-1,-2,0,-2,-1,-2
1763470486.5280464,-2,-2,-1,-2,-2,-1,-2,-1
1763470486.5370784,-2,-3,-2,-2,-1,-1,-2,-3
1763470486.5590591,0,-2,-1,0,0,-1,-1,0
1763470486.5654645,-2,1,-1,-1,-2,0,0,-1
1763470486.5743632,1,-1,-2,0,0,-2,-1,0
1763470486.587929,-2,1,0,0,0,0,-1,-1
1763470486.5968874,1,-1,-2,-1,1,-2,-1,-1
1763470486.611837,-1,-3,0,-3,0,0,-1,-2
1763470486.634476,-2,-1,-1,-1,-1,-1,0,-1
1763470486.6570587,0,-1,-3,-3,-2,1,-1,-1
1763470486.6717951,-1,0,-2,1,0,-2,-1,-2
1763470486.694534,0,-1,-2,-2,-2,-1,-3,0
1763470486.7171047,0,0,0,-2,-2,0,-2,-1
1763470486.7312493,-3,-2,0,1,1,-1,1,-1
1763470486.7381322,-1,0,-1,1,1,0,-1,-1
1763470486.7547252,0,-1,-1,-1,-1,1,-2,1
1763470486.776952,0,0,-2,-2,-2,-2,-1,-2
1763470486.791184,-1,-2,0,0,-1,-3,-1,-1
1763470486.7979724,-2,-1,-1,0,0,-1,0,-1
1763470486.814256,-1,-1,0,-1,-1,-1,0,-2
1763470486.8368256,-4,-1,1,0,-2,-3,0,-1
1763470486.8511379,0,0,-1,0,1,1,-2,-1
1763470486.8579574,-2,-1,-1,-1,0,0,-1,-1
1763470486.874314,-1,-1,-1,-2,-1,-2,1,-3
1763470486.8967276,-1,-1,-1,-3,-2,-2,0,0
1763470486.91935,-1,-2,-1,2,-2,0,-2,0
1763470486.9343183,-1,-1,-2,0,-2,-1,-1,-1
1763470486.9567966,-1,-2,-2,-6,-1,0,0,0
1763470486.9704921,-2,-1,-2,-2,-1,1,-2,-3
1763470486.9795673,-1,-1,0,0,-2,-3,0,-2
1763470486.9942768,0,-1,-2,0,0,0,0,-1
1763470487.0173066,0,-1,0,0,2,-1,0,-1
1763470487.0229502,0,0,0,-1,-3,-1,-1,-2
1763470487.0311098,0,-1,-2,-1,-2,0,-2,0
1763470487.0382366,-1,-1,-1,-1,-2,-1,-1,-1
1763470487.0542877,-1,-1,1,1,-1,-2,0,0
1763470487.0768476,0,0,-1,-2,-1,-3,-2,1
1763470487.0905588,-2,-1,0,0,-1,-2,-1,-3
1763470487.0995102,-1,2,-2,0,-2,0,-1,-1
1763470487.1218145,-1,-1,-2,-2,-1,-1,-1,-2
1763470487.1368167,-1,1,-1,-2,-1,-1,0,-2
1763470487.1507266,0,0,-3,0,2,1,-2,0
1763470487.1594224,-2,-2,-2,-4,-3,-4,-1,-2
1763470487.1747932,0,-2,0,-1,-2,0,0,-1
1763470487.1970026,-3,-2,-1,-2,-1,-2,-3,0
1763470487.211018,0,1,-1,1,2,1,-2,0
1763470487.2196116,0,-1,-3,-2,-1,-1,-2,-2
1763470487.2344122,-3,-1,-3,-1,-1,-2,0,-1
1763470487.2568486,-1,-1,0,-1,-3,-5,-1,-3
1763470487.2704418,-1,-1,-1,0,-2,-1,0,0
1763470487.2793941,-2,-2,0,-1,-2,0,-1,0
1763470487.294326,1,0,0,-2,-2,0,-1,-1
1763470487.3169394,-1,-1,0,2,1,-1,-1,0
1763470487.330583,-2,-1,-1,-3,-2,-1,-1,-2
1763470487.347296,1,-1,-1,0,0,0,-1,-1
1763470487.3550518,0,-3,-1,-3,-2,-3,-2,-2
1763470487.37871,0,-2,-2,-1,1,0,-1,-1
1763470487.390561,-1,-1,-2,-1,-2,-1,0,-3
1763470487.3995106,-1,0,0,-1,-2,-2,-1,-1
1763470487.414319,0,-1,0,0,0,-3,-1,0
1763470487.4444847,0,0,-1,-1,-2,-3,-1,1
1763470487.450485,-1,-2,-2,0,-2,0,0,-2
1763470487.4594636,-1,-1,-1,-1,-2,-1,0,-2
1763470487.4744947,-2,-2,-2,0,0,0,0,-2
1763470487.4968767,-1,0,-1,-2,1,0,-2,-1
1763470487.5104804,-1,0,-1,-3,-2,-3,0,0
1763470487.5195973,0,-1,-1,0,-2,-1,-2,-1
1763470487.5338366,-1,0,0,-1,-2,0,0,-1
1763470487.5407488,-3,-2,-2,-4,-3,-2,0,-1
1763470487.5643137,-2,-1,-1,1,-1,0,-1,0
1763470487.579765,-1,0,-1,0,0,-1,-1,0
1763470487.5950687,-2,-1,-3,-2,-1,-4,-1,-1
1763470487.6170926,-2,-2,-1,-2,-1,-4,1,-2
1763470487.6397765,-1,-1,0,0,0,2,-1,-1
1763470487.654776,-1,-2,-3,-1,-2,0,-2,0
1763470487.676845,0,0,1,1,-3,-2,-1,-2
1763470487.6993794,-2,-1,0,-3,0,-1,0,-1
1763470487.713638,0,-1,-2,-1,-1,-2,-1,-2
1763470487.7205093,0,-2,1,0,-1,0,0,-1
1763470487.7368107,-3,-4,-1,-1,1,-1,-1,-1
1763470487.759444,6,-3,-1,-7,-9,-1,-3,-1
1763470487.773626,-7,7,-8,14,11,-3,-3,-3
1763470487.7823102,4,42,17,2,-3,2,2,-1
1763470487.7972558,-17,-17,-15,9,29,0,-8,-2
1763470487.8193333,7,16,15,-6,-17,-7,-2,0
1763470487.8329594,-6,-18,0,8,-1,-1,-2,-4
1763470487.8419256,26,-20,-51,-14,-9,-8,-8,-10
1763470487.8567884,8,17,8,8,2,8,8,5
1763470487.8792405,15,-16,-12,-14,-9,-8,-3,-3
1763470487.893031,-11,-14,-8,-7,-12,0,-2,-2
1763470487.9018936,-9,-7,-6,-1,4,3,2,-1
1763470487.9170244,-33,7,16,4,4,5,2,-1
1763470487.939446,-10,2,-5,-8,-10,0,4,-1
1763470487.9534621,11,5,-12,4,8,2,1,0
1763470487.9621081,5,-5,-19,-5,-8,-1,1,1
1763470487.9843047,-5,5,3,-1,10,-3,-1,0
1763470487.9997983,7,-1,1,-13,-26,-5,-3,-2
1763470488.012939,8,0,1,2,34,18,1,0
1763470488.021976,-4,-5,-2,-1,5,0,0,-1
1763470488.043349,0,-3,1,-4,-31,7,1,0
1763470488.0518384,5,0,0,3,-5,-7,4,4
1763470488.0592966,0,-5,-7,-9,-3,2,1,-5
1763470488.073196,16,8,7,4,0,-14,6,11
1763470488.081999,-2,-3,-4,-3,3,65,-20,-52
1763470488.0968575,9,-1,1,-3,-7,-21,33,95
1763470488.1199105,-20,-8,-10,-3,-14,-23,-29,-63
1763470488.133225,3,11,15,-53,-35,28,53,23
1763470488.1423745,21,12,-2,-24,34,45,32,110
1763470488.15697,-15,-21,-19,25,61,75,6,34
1763470488.179315,-7,0,-4,-18,-16,-73,-98,-128
1763470488.1929321,30,6,3,27,-41,-10,1,-69
1763470488.20191,38,11,5,-21,-30,8,51,-35
1763470488.2168283,-1,1,-7,-21,16,21,46,-10
1763470488.239531,4,16,22,-1,-1,52,-40,-23
1763470488.2534533,-11,16,26,57,52,-69,-28,1
1763470488.2694943,-16,-6,4,-6,-63,-36,-30,-37
1763470488.2770875,-3,-17,-5,-3,-46,-12,20,-10
1763470488.2996216,-11,-23,-15,46,-54,14,27,-18
1763470488.3219252,50,30,-58,-64,9,9,20,34
1763470488.3369253,-59,-13,27,-5,-35,-31,-56,-80
1763470488.3667817,13,13,-6,-67,-49,-36,27,103
1763470488.3729973,-8,-22,3,18,5,-8,-7,103
1763470488.3819597,14,30,16,8,36,80,9,38
1763470488.3963466,6,7,-32,49,16,2,-43,-4
1763470488.4031851,28,-5,-12,-56,-87,4,-10,-22
1763470488.419719,103,2,17,-17,-34,32,-42,45
1763470488.4421878,35,-18,26,26,75,61,61,-128
1763470488.4561875,-31,-3,26,-11,5,-30,-28,-91
1763470488.4647522,39,-9,-26,33,22,-7,-28,127
1763470488.4795775,0,-7,4,-20,11,-33,5,-35
1763470488.5019443,-20,21,52,58,36,43,-44,-14
1763470488.5177932,-55,54,-1,-64,-21,3,90,33
1763470488.5232146,20,16,28,41,47,-77,61,-30
1763470488.5396051,-9,-25,65,67,14,-43,-35,-21
1763470488.562066,38,66,29,18,-4,-45,-6,24
1763470488.5761614,-42,-69,-30,5,20,0,-24,26
1763470488.5847166,-8,-38,50,51,-35,-68,-66,-31
1763470488.5994601,29,-38,-105,37,13,43,13,66
1763470488.6218877,-18,-20,-21,-58,33,-48,-15,29
1763470488.6364827,-1,-9,-33,-74,-24,5,-15,-55
1763470488.6430192,27,40,42,18,-21,32,14,-47
1763470488.6595979,-7,-17,-29,26,-13,16,-2,-33
1763470488.682066,12,-1,23,67,-32,1,-16,-117
1763470488.6962848,-16,7,14,5,9,-7,9,36
1763470488.7032218,3,13,-3,19,59,13,-10,18
1763470488.719392,9,1,6,3,-10,35,-9,3
1763470488.7420623,-12,5,9,17,-57,-7,19,-26
1763470488.756302,20,-8,4,13,-55,33,17,86
1763470488.7630002,-8,-4,-7,33,-38,10,-17,-26
1763470488.7868774,-3,7,13,-25,53,74,-28,-28
1763470488.8018308,-40,-10,-1,15,50,-38,-4,-22
1763470488.815511,-24,-8,-21,-33,31,35,66,-89
1763470488.830512,14,11,18,-1,-32,-45,-50,-5
1763470488.8394175,-4,-6,-9,-22,-5,-26,-20,1
1763470488.862192,39,19,-18,3,60,-21,-14,-44
1763470488.8766851,10,4,22,-25,-24,30,23,38
1763470488.8830419,13,-6,-5,50,-33,-37,-26,51
1763470488.8994775,0,-1,-23,-74,-32,-47,-5,50
1763470488.921811,2,7,-34,23,-14,9,34,-31
1763470488.9363565,-15,-20,24,30,16,-8,-41,-9
1763470488.9430053,-15,-1,-8,14,53,6,64,-91
1763470488.9592903,1,-4,1,16,-26,-26,-11,30
1763470488.9818506,-17,-1,-17,-5,25,26,35,24
1763470488.9954255,-37,-10,39,43,19,-15,-22,-70
1763470489.0045295,-17,-10,-48,69,56,-3,-27,-120
1763470489.019489,7,-2,5,-8,-43,-40,-17,78
1763470489.0418427,-17,6,-8,-39,80,24,-16,-48
1763470489.0555165,-14,6,-7,-59,14,-35,-29,45
1763470489.0645044,-15,-10,2,-61,-53,-56,38,-71
1763470489.079305,9,14,-7,21,-23,19,0,23
1763470489.1010737,0,-2,-25,-26,-15,-16,27,55
1763470489.1095538,1,-1,-2,-47,-19,-54,-103,-39
1763470489.115646,9,-6,-29,-37,19,38,-10,-35
1763470489.124535,-5,-14,-4,-46,-1,-30,-46,-17
1763470489.1394534,24,24,54,91,-56,40,7,8
1763470489.1618156,-26,-16,-6,47,45,6,15,-9
1763470489.1844702,9,0,-33,-23,36,11,23,55
1763470489.1996434,4,3,19,-3,-12,-29,-39,-77
1763470489.2222714,-21,0,21,21,1,27,-35,-93
1763470489.2355986,19,15,35,67,-4,43,26,120
1763470489.2448063,12,-16,14,2,9,-34,0,16
1763470489.2595735,12,-3,-5,-12,-42,-62,-24,5
1763470489.289309,-3,-27,-50,-62,-20,5,50,-46
1763470489.2955024,4,-5,-22,-20,10,-29,18,66
1763470489.304557,13,-3,-6,35,12,-19,5,110
1763470489.3195963,33,20,-17,-59,-37,56,1,34
1763470489.3421004,1,-13,-30,-48,-97,-54,-8,-20
1763470489.3557124,-13,1,32,55,43,10,32,10
1763470489.364764,-16,-4,20,-1,17,-23,25,19
1763470489.3870232,-46,-30,30,25,6,-13,-24,-40
1763470489.402026,-10,0,11,52,42,0,-33,-87
1763470489.4156082,18,-8,-47,-31,-18,4,-28,37
1763470489.4320645,23,-8,-15,-11,8,-22,-3,109
1763470489.4393096,-14,16,48,3,-30,-87,-34,-40
1763470489.4617903,18,3,-17,-59,23,5,19,-15
1763470489.484451,-4,9,24,50,-10,3,-22,-26
1763470489.499937,-15,-1,5,-16,-11,-11,-22,-65
1763470489.5218894,-31,3,4,5,-7,-52,-57,-41
1763470489.5519526,2,11,5,-27,-13,40,5,-9
1763470489.5587282,46,10,2,10,69,64,54,127
1763470489.565433,11,3,-8,-19,-2,-19,-11,30
1763470489.5819182,-11,0,20,-9,-26,10,29,-1
1763470489.6043077,7,7,-5,9,14,-13,94,97
1763470489.6188211,4,-4,-1,-15,-23,-14,-7,49
1763470489.6256313,6,4,12,67,5,-34,-18,26
1763470489.6420069,-22,-18,-23,19,-15,24,15,-37
1763470489.6643693,-30,-3,-25,-59,45,-38,-58,-128
1763470489.6787076,33,8,24,33,-44,-67,-30,-8
1763470489.6855402,-14,-9,-9,13,29,-11,-31,-6
1763470489.7093563,-3,-3,-6,8,33,34,-15,-115
1763470489.7242925,2,-11,-3,-7,17,-10,9,14
1763470489.7397113,-10,-7,13,32,-28,38,53,81
1763470489.7529423,-8,-21,-61,-62,84,23,-1,-54
1763470489.7617645,-9,2,-14,17,-33,-38,-10,-16
1763470489.7845404,-13,-10,-16,-38,48,19,10,-41
1763470489.798726,-6,2,14,-29,-45,-3,-30,16
1763470489.8055046,-32,14,20,-13,-11,21,-21,-37
1763470489.821921,-10,-16,-25,63,8,-39,12,18
1763470489.8446474,18,20,8,-16,8,21,20,87
1763470489.8588383,28,-8,-33,-60,-10,14,-20,-6
1763470489.8661366,8,-2,-2,27,-11,-23,-16,-90
1763470489.8818388,17,7,16,25,-30,-23,-28,-29
1763470489.9046426,-2,-10,-25,-77,-24,15,-5,-34
1763470489.926913,47,-18,-70,-46,28,-25,37,16
1763470489.9423635,1,34,40,-66,-38,24,38,-11
1763470489.9643703,8,-12,-11,95,87,20,19,14
1763470489.9877167,7,-3,-8,41,-51,-38,-28,37
1763470490.0011184,-67,-31,-1,-15,-17,10,-33,-87
1763470490.0236664,51,16,38,99,113,24,-26,-6
1763470490.0461223,-23,-13,14,17,-26,36,-10,-111
1763470490.0611413,-33,-4,10,79,23,0,7,-27
1763470490.0837345,-21,-8,-15,-114,4,-20,-34,19
1763470490.1062496,-1,9,34,-2,12,-1,54,-51
1763470490.1211467,2,-3,-44,-26,-8,-13,-15,-10
1763470490.1436677,1,17,3,43,-49,-18,19,2
1763470490.1661632,14,10,14,-6,-79,-58,10,52
1763470490.181106,-18,-12,-5,-7,9,9,-4,58
1763470490.203648,-6,-1,1,-57,31,-15,-15,-36
1763470490.2262335,21,-18,-13,-13,8,-13,-22,93
1763470490.2411366,15,10,-18,-39,4,56,39,-20
1763470490.2641985,-1,18,46,1,-11,-8,-23,4
1763470490.2860463,-2,-19,-20,-34,-11,0,-4,-128
1763470490.2936976,1,-3,11,-4,32,24,-4,25
1763470490.30129,12,4,2,-30,-66,-15,-9,-4
1763470490.3235917,-10,2,-5,-10,-39,35,66,9
1763470490.3462229,4,10,12,7,3,-7,-7,-2
1763470490.361135,-10,-12,-18,14,44,-36,-38,19
1763470490.383716,8,-4,3,21,67,57,-2,34
1763470490.4064736,-18,-9,3,30,-59,-26,-18,-33
1763470490.4212613,-17,0,-4,45,-18,-8,-43,-23
1763470490.444145,-4,-7,-15,27,-4,0,-16,-39
1763470490.466237,22,4,-8,-50,11,42,-22,-78
1763470490.4842846,-2,16,37,29,-5,-10,30,12
1763470490.503647,8,-4,-22,8,60,34,37,105
1763470490.5267396,4,16,33,-28,-39,10,2,15
1763470490.5411706,28,21,-8,-69,-50,-35,-15,59
1763470490.5718534,14,1,-12,10,68,13,16,45
1763470490.5865943,-15,-9,-4,50,0,41,-32,-62
1763470490.6011531,39,12,21,51,23,62,49,85
1763470490.6238346,-24,-8,18,-23,-22,-37,-5,-67
1763470490.6463335,-36,-24,-20,-13,-1,-27,-24,-52
1763470490.66277,-15,-8,-22,-36,-3,18,7,-40
1763470490.683682,-13,-27,-51,37,33,-50,-26,-24
1763470490.706177,10,17,27,15,11,4,87,-15
1763470490.7214732,10,-16,-70,-54,27,-28,-20,13
1763470490.7446172,-13,13,49,47,-26,15,-22,-7
1763470490.7661748,-22,3,29,-28,-57,-71,-20,-54
1763470490.781098,-20,2,24,9,-27,12,42,0
1763470490.8036544,22,-1,-2,21,10,36,12,11
1763470490.8262897,2,10,26,7,-8,6,4,-8
1763470490.8411849,13,16,13,-34,-36,5,-39,4
1763470490.8639927,-27,2,-28,-20,4,24,-36,11
1763470490.8943784,-1,-15,-33,5,63,11,2,37
1763470490.9096098,-3,-1,18,-5,19,15,-1,-47
1763470490.923808,29,-6,-24,-20,-14,14,14,100
1763470490.94623,16,-13,-19,-19,-17,-12,-5,6
1763470490.960695,10,-6,16,104,25,-15,-14,92
1763470490.968733,-47,-17,-2,-7,52,11,-49,-117
1763470490.9837596,5,-2,-24,-5,16,3,-33,-44
1763470491.0061636,-36,-5,25,-53,-51,10,-25,-54
1763470491.0204642,-21,-10,-15,8,-13,-47,16,-60
1763470491.0361085,42,21,8,43,37,22,-27,-28
1763470491.0438874,-18,-5,25,107,26,-2,3,-24
1763470491.0662234,13,13,21,-51,-56,-1,13,-18
1763470491.0805295,2,4,21,14,-30,-39,48,12
1763470491.0884867,-8,5,11,-59,-6,-5,9,70
1763470491.1035786,12,10,-4,0,16,-29,-29,20
1763470491.1262164,1,-8,-16,41,18,6,4,-30
1763470491.1407232,-4,-1,-8,-49,-33,2,-20,-5
1763470491.1487544,5,-1,13,9,45,-36,-17,-33
1763470491.1640394,-30,-7,10,7,45,4,-18,-54
1763470491.1862028,15,6,8,-30,-21,32,9,-9
1763470491.2006822,-8,0,-13,42,53,27,19,-50
1763470491.208895,-18,-6,26,-20,-43,-74,-25,-44
1763470491.2317555,11,2,-20,-23,70,32,17,37
1763470491.2460966,-15,7,-3,-56,-11,12,28,32
1763470491.2605426,-12,-9,9,3,-29,-25,-29,-108
1763470491.2689862,-4,0,4,-1,-20,16,9,-19
1763470491.283837,-23,-7,-5,35,49,29,-3,-40
1763470491.3063047,22,9,10,7,20,-5,-8,106
1763470491.3205245,10,-10,11,27,2,16,7,63
1763470491.3286898,3,2,10,8,-33,44,47,-15
1763470491.3439631,-1,-6,-4,-26,3,-35,-17,-46
1763470491.3661506,19,14,11,34,-29,-38,-20,32
1763470491.3740125,-5,7,10,-26,7,-54,-14,12
1763470491.3895109,17,-4,-31,12,-10,-20,31,40
1763470491.4037194,-1,0,-5,-48,18,-18,-10,-36
1763470491.4262667,-12,-10,-25,-42,-7,3,19,73
1763470491.4494796,21,-2,-16,-5,26,52,5,27
1763470491.4636745,-20,-10,-1,45,21,1,13,-14
1763470491.49438,28,21,34,-10,-42,-34,-12,-94
1763470491.5093973,-8,-2,3,-19,-8,0,10,-2
1763470491.5237207,-12,-6,-7,-31,-36,-4,12,71
1763470491.5544257,-12,0,-8,-10,-33,-17,-27,-71
1763470491.5693092,-5,0,6,14,43,18,-2,-41
1763470491.583665,-15,-6,-31,-19,4,-15,-9,-30
1763470491.6061828,-11,-13,3,-4,-23,9,-24,-1
1763470491.628656,7,12,4,8,-24,-41,-15,-37
1763470491.6436794,14,-4,-25,-13,17,-3,-6,42
1763470491.66635,-49,-34,-35,114,46,49,40,-1
1763470491.6895423,-30,-3,13,-63,-33,-87,-28,-125
1763470491.70374,9,6,24,16,13,12,29,7
1763470491.7264338,15,12,29,18,-39,7,14,-2
1763470491.7496629,20,0,-20,-6,8,3,-8,-2
1763470491.7719045,17,21,31,91,35,-4,18,62
1763470491.7863154,-4,1,-16,-79,-25,65,-32,-14
1763470491.8087618,7,-6,-22,-58,-6,-3,-30,-24
1763470491.8239155,-3,-13,-22,-17,16,1,8,-48
1763470491.8462365,9,14,26,-58,-55,-11,0,38
1763470491.8687515,-8,-4,15,7,-8,-5,-2,-18
1763470491.8846629,-24,-12,-6,22,14,9,4,29
1763470491.891402,5,10,25,25,-5,18,-9,57
1763470491.9062922,-9,2,-11,-5,-43,11,-22,34
1763470491.9287415,23,0,-42,-89,-2,-13,16,28
1763470491.943078,-11,-4,8,-6,-31,-21,5,-32
1763470491.958783,-28,-6,5,-12,-39,-6,6,-34
1763470491.9662273,1,4,13,39,8,-36,-31,5
1763470491.9887278,15,1,4,20,-28,21,47,22
1763470492.0029194,4,-3,4,43,42,4,-19,-62
1763470492.0112138,-5,2,6,-23,13,0,-40,-26
1763470492.0262346,-12,2,-3,-52,2,0,-10,-2
1763470492.0491805,-5,9,45,52,13,10,18,30
1763470492.0629458,0,-3,3,21,4,11,-12,-9
1763470492.0712929,7,6,15,49,-6,-1,40,40
1763470492.0861673,4,-5,-29,2,-62,-24,-37,-93
1763470492.1087875,23,3,2,43,-3,-12,-12,58
1763470492.1232214,1,-7,-8,12,74,-6,24,95
1763470492.1312733,-15,1,13,17,18,7,26,-14
1763470492.1467493,-15,-12,-17,-37,-21,-21,-25,-10
1763470492.1686113,-10,-2,14,44,11,-7,1,-25
1763470492.1920211,-10,-4,7,-11,1,-17,-9,-26
1763470492.2065551,-11,-8,-22,-65,-40,25,32,6
1763470492.2286718,0,2,-2,-21,1,-6,4,80
1763470492.2430365,0,4,6,15,12,9,0,-28
1763470492.2512336,9,-1,0,12,12,2,-9,-6
1763470492.2662392,2,9,8,-3,1,6,0,-26
1763470492.296822,-30,-3,6,14,19,20,24,-8
1763470492.3118901,16,-9,-2,2,8,0,-6,-33
1763470492.3275785,-12,5,-2,-4,0,2,-3,-18
1763470492.3496583,5,-1,3,3,11,12,2,9
1763470492.3729138,8,1,-1,1,22,0,-11,-2
1763470492.3864338,25,13,3,2,22,19,6,22
1763470492.4087193,24,-13,-7,-10,-10,6,-46,-10
1763470492.4316027,-15,5,2,39,27,-10,0,-10
1763470492.4461317,0,-6,2,10,13,-18,14,8
1763470492.4686475,4,-10,-6,-6,-21,-10,11,2
1763470492.4919634,-10,2,8,-13,-6,4,5,4
1763470492.5063372,-10,5,-1,20,18,-6,-9,-6
1763470492.5287988,-1,12,4,-23,-36,-2,3,12
1763470492.551887,0,2,-3,-13,1,-2,5,-3
1763470492.5662954,-4,-13,1,2,-13,-7,4,-5
1763470492.588754,-3,9,1,-1,-11,0,-4,-6
1763470492.6120079,3,-3,-12,-22,2,-1,2,-1
1763470492.626721,2,-7,-6,-2,2,-3,0,-5
1763470492.6488287,0,8,4,13,-4,-1,-2,-2
1763470492.6735418,-3,-4,2,1,11,3,1,-1
1763470492.6862154,-6,-6,1,-15,-16,-4,-5,-3
1763470492.708925,3,2,2,1,-12,1,0,0
1763470492.7322762,-4,-2,-2,-15,-10,2,0,-1
1763470492.746364,4,-1,-4,-2,-11,-3,-2,-1
1763470492.7686787,-8,-5,-4,5,-1,1,-2,-2
1763470492.791816,-4,0,5,7,13,2,0,0
1763470492.806762,-2,-3,-4,3,1,-3,-1,0
1763470492.828783,4,-1,-1,1,-1,-2,-2,-3
1763470492.851875,-2,-2,-3,-3,-1,-1,-1,2
1763470492.866094,-1,-1,-5,-8,-6,0,-1,-3
1763470492.8969264,2,-3,-3,-4,-3,-4,-1,-2
1763470492.9112306,0,-1,-2,3,4,-3,-2,1
1763470492.9254584,-3,-1,0,1,1,0,1,-1
1763470492.933802,0,-1,-2,0,-1,0,-1,-2
1763470492.948712,-2,-2,0,0,-1,-1,-1,0
1763470492.971943,-1,1,-2,-4,-7,0,-1,-1
1763470492.9944787,-2,-1,-1,3,0,-1,-1,0
1763470493.0087852,0,-1,1,-3,0,-3,-1,-1
1763470493.0393562,-1,-3,-3,-1,0,1,-1,-2
1763470493.045497,0,1,1,8,8,-1,-3,-3
1763470493.0537803,-1,-1,0,-3,-1,0,0,-2
1763470493.0689077,0,-2,-1,-8,-7,1,-1,-1
1763470493.0921936,-1,-2,-2,0,2,-2,0,-2
1763470493.1056447,-1,-1,-1,-2,-2,-1,1,-2
1763470493.1136625,-1,-2,1,-5,-5,-3,-2,0
1763470493.1287372,-2,0,-1,5,5,-2,1,-1
1763470493.1519186,0,0,0,-3,-8,-2,-1,0
1763470493.1655293,-1,-1,-2,-4,-6,-1,-1,-2
1763470493.1737313,-2,1,0,5,4,-2,0,0
1763470493.1886857,-1,0,2,6,-1,1,1,0
1763470493.2118547,-2,-2,-2,-1,3,-1,0,-1
1763470493.2254825,-1,-1,0,0,1,0,-2,0
1763470493.233839,1,0,-1,-4,-1,-1,1,0
1763470493.2487936,-1,-2,-1,-1,0,-2,-3,-1
1763470493.2713664,-1,1,-2,-4,-3,0,-1,0
1763470493.2946353,2,0,-2,-12,-12,0,-1,-1
1763470493.3172083,-1,-1,-2,5,6,-2,-2,-3
1763470493.332005,-1,-2,1,-8,0,-1,0,-2
1763470493.361908,1,0,-2,-7,-11,-3,1,-1
1763470493.3687615,-2,-1,0,3,3,0,-3,-1
1763470493.3921697,-2,-1,-1,0,2,-1,-1,0
1763470493.4147868,0,-1,-2,-1,-1,-1,-2,0
1763470493.4288483,-2,-2,1,-1,-4,0,-1,-2
1763470493.4518747,-2,-1,-2,2,1,-1,-1,-1
1763470493.4746115,-4,-2,-1,1,4,-1,0,-3
1763470493.488933,-1,-1,-2,-5,-5,0,-1,0
1763470493.5112848,-2,0,0,2,0,0,-1,0
1763470493.5345602,0,0,0,1,2,-1,-1,0
1763470493.5489166,-1,-2,-2,0,-1,0,-1,-2
1763470493.5797353,1,-2,-1,1,-1,0,-1,-1
1763470493.5945306,-1,-1,-2,-1,-1,-2,0,-2
1763470493.6087046,1,1,-1,9,7,0,0,-2
1763470493.6312554,0,-1,-1,-5,-3,-2,-2,-1
1763470493.6543477,1,0,-1,-3,0,1,0,2
1763470493.6688054,0,-1,1,-2,-1,0,0,-1
1763470493.69121,-2,-2,-2,-2,-3,-2,-1,-1
1763470493.7145786,-1,-2,-2,-2,-2,-1,0,-1
1763470493.7286596,-1,0,-2,-5,-4,0,-1,-2
1763470493.7514489,-1,-1,-1,-6,-7,-3,-2,-1
1763470493.7743483,-2,0,-1,-2,-2,-3,-2,-1
1763470493.7887769,-1,1,5,20,7,-1,1,1
1763470493.8113177,-1,-1,-3,-11,-3,-2,-1,-1
1763470493.8346078,-1,-3,-1,-1,0,-1,-2,-1
1763470493.8481715,-1,-1,-1,3,1,0,0,1
1763470493.856405,0,1,-2,-4,-1,0,-2,-2
1763470493.8717308,1,0,-2,-3,-5,-1,-2,-2
1763470493.8945365,-1,0,-2,-3,-4,-1,0,0
1763470493.9171624,-3,-1,-3,-9,-4,-2,-2,-3
1763470493.9313705,-1,-3,-3,-3,0,-2,-1,-1
1763470493.9544754,-1,-1,-1,3,2,-1,0,0
1763470493.968071,-3,-1,-1,0,0,1,-2,-1
1763470493.9763248,-1,1,0,-1,0,-1,-1,-1
1763470493.9912124,-1,0,-2,2,0,-1,-1,-1
1763470494.0144691,-1,-2,-2,-1,1,-1,0,0
1763470494.0280156,-1,-2,0,-9,-5,-3,-2,-1
1763470494.0365312,0,0,0,0,1,-1,-1,-1
1763470494.0514762,-2,-2,-1,3,0,0,0,-1
1763470494.0743752,1,0,-1,0,-2,0,2,-1
1763470494.088057,-1,-1,0,0,0,-1,-2,-1
1763470494.1037478,-1,2,-1,-1,-3,1,1,0
1763470494.1112003,-1,-3,-2,-2,0,-3,-2,0
1763470494.134489,2,-1,0,-3,-5,0,1,-1
1763470494.148671,-1,-1,-3,-2,-1,-2,-1,0
1763470494.1564672,-1,-1,-1,0,3,0,-1,-1
1763470494.1712413,-2,0,0,2,1,0,-1,-1
1763470494.194426,0,-2,0,2,0,-1,-2,-1
1763470494.217253,1,0,0,0,0,-2,0,-1
1763470494.2313688,-1,0,-1,-7,-3,0,-3,-2
1763470494.2546313,0,0,-3,1,1,-3,-2,0
1763470494.2770898,-2,-2,-1,1,0,1,-1,-3
1763470494.2912257,-1,0,2,-4,-5,-2,1,-1
1763470494.3143947,-1,0,-1,1,1,-1,-1,0
1763470494.3368704,-2,-1,0,1,-2,1,1,-1
1763470494.3512216,-1,0,0,1,-3,-2,-1,-3
1763470494.3744507,-1,0,-2,10,11,0,-3,-1
1763470494.3971531,-3,-1,-2,-7,-6,-1,1,-1
1763470494.4114218,-2,-2,0,-1,-3,1,-1,-1
1763470494.4349108,0,-3,0,-1,2,-1,-2,0
1763470494.4570143,-1,1,-2,-2,-1,0,-2,0
1763470494.471266,-2,-3,-4,-1,-1,-2,-2,-3
1763470494.4944913,-2,-1,-2,1,-3,-3,-3,-2
1763470494.5169458,1,-1,-1,1,2,-1,-2,1
1763470494.5312495,-1,0,0,-7,-6,0,-1,-1
1763470494.5619297,0,-2,2,1,-1,-1,2,-1
1763470494.5769238,0,1,-2,-6,-3,0,-1,0
1763470494.591452,-1,-1,-1,3,1,-1,-2,-2
1763470494.6146345,-1,-1,0,-1,0,-2,0,-2
1763470494.637088,0,-1,-1,-2,-1,-1,-1,-1
1763470494.6511958,1,-2,-2,-2,-1,1,0,-1
1763470494.6590223,-1,0,-2,-4,-1,-2,-2,-1
1763470494.6745923,-1,0,0,-1,-2,-1,0,1
1763470494.6961782,-1,0,0,2,0,-2,-2,-1
1763470494.7039506,-1,0,-1,-2,-5,-2,-2,0
1763470494.7105327,-1,0,-1,0,4,-2,-1,0
1763470494.718906,-2,-1,-2,0,2,-2,-2,-3
1763470494.7345588,0,-1,-2,0,-4,-1,-1,-1
1763470494.756882,0,0,-1,-2,-1,-1,-2,-1
1763470494.771335,0,-1,-1,0,-2,-1,0,0
1763470494.7944477,0,-1,-2,-7,-4,-1,0,0
1763470494.8169565,-3,-2,-2,0,1,0,1,-1
1763470494.8306093,0,-1,-1,0,2,-1,1,0
1763470494.8386981,-1,-2,-2,-2,3,-2,1,-1
1763470494.854332,-1,-1,1,-2,-5,0,-1,-1
1763470494.8768682,0,0,-2,2,0,-1,-1,-1
1763470494.8906317,-1,-1,-2,-4,-3,0,-2,-3
1763470494.8988469,-2,-1,0,-1,0,0,-1,-1
1763470494.9145257,-1,-2,-1,-2,0,-2,-2,-1
1763470494.9374344,-1,-2,0,0,-1,0,-1,-2
1763470494.9504967,0,0,-2,-1,-2,0,0,-1
1763470494.9587631,0,-1,0,-2,-1,-1,0,-1
1763470494.9736743,-2,0,0,-1,-6,1,0,0
1763470494.9968832,-1,-1,0,-1,-1,-2,-1,0
1763470495.0106266,1,-1,-2,-3,-8,-2,-2,-1
1763470495.026275,-1,0,0,1,0,-1,0,-1
1763470495.0344932,-1,-2,-1,-1,0,-1,-1,-2
1763470495.0569012,-2,1,1,-2,-2,-2,-1,-1
1763470495.0706582,0,-1,-2,-3,0,-3,-2,-1
1763470495.0787816,-1,1,0,2,1,-2,-1,0
1763470495.094432,-2,-1,-1,1,3,-1,0,0
1763470495.1180613,1,-1,-1,-4,-4,1,-2,0
1763470495.131378,-1,-2,-1,4,5,-1,-1,-1
1763470495.1398952,-1,0,-2,-2,0,-1,-2,0
1763470495.1540573,-1,-1,-2,0,0,-3,-1,-1
1763470495.1768482,-2,1,-1,-2,0,0,0,-2
1763470495.1994238,-2,-1,0,1,-1,2,2,-1
1763470495.2136796,-1,-2,-1,-2,-1,-1,-3,-3
1763470495.2370322,-2,-2,0,-1,-1,-2,-1,-1
1763470495.2598348,-1,0,-1,-1,1,-2,0,-1
1763470495.2737586,-1,-4,-1,-1,0,0,0,-1
1763470495.29695,0,-1,-1,-1,0,-2,-2,-2
1763470495.3194137,0,0,0,3,2,-1,-1,1
1763470495.333789,-2,-1,-1,-1,1,0,-2,-2
1763470495.3571928,2,0,0,0,-2,-2,0,0
1763470495.3795648,-1,0,0,-2,-2,-1,0,-1
1763470495.3941085,-1,-1,-1,-1,-4,2,-1,-1
1763470495.4171798,-2,-2,-1,-2,-1,-2,-2,-1
1763470495.4385052,-1,1,0,-1,-2,1,0,0
1763470495.4466002,0,-4,-2,-4,-4,-1,-1,-1
1763470495.4538496,0,0,1,-4,2,-1,0,0
1763470495.477032,-2,3,-2,-2,-2,-1,-1,-2
1763470495.4996397,-1,-9,-6,4,-19,-6,-1,-1
1763470495.5131998,8,17,17,10,4,-3,0,1
1763470495.5223522,-2,-2,-5,4,-4,-6,0,-1
1763470495.537302,-8,-33,-13,-8,0,-2,-3,-5
1763470495.5593734,-1,15,5,-20,-8,1,-2,1
1763470495.5656462,7,-4,0,4,4,2,0,2
1763470495.5731382,-15,-30,-28,-2,12,-6,-4,-4
1763470495.58199,9,22,8,-2,4,0,0,3
1763470495.5970361,1,8,6,-8,-11,1,0,0
1763470495.6195326,15,22,5,20,56,59,10,5
1763470495.6332457,6,-11,3,-3,-24,-21,-4,-3
1763470495.642154,-9,-41,36,7,8,1,1,-4
1763470495.6571593,8,-3,-33,-24,-28,-17,0,-1
1763470495.679585,-8,-2,7,-3,-6,-1,-2,-1
1763470495.6931722,-6,-3,0,15,20,-6,-3,-3
1763470495.7020516,-7,-2,-10,-4,3,6,1,-4
1763470495.7245495,-5,-2,-2,-8,-16,-3,-3,-3
1763470495.7396731,-2,4,9,11,40,7,1,4
1763470495.7531734,-1,3,2,-4,-27,-40,-23,5
1763470495.769848,-12,-5,-8,-11,-20,-14,-11,-22
1763470495.777058,-3,-5,-4,0,28,13,-12,-5
1763470495.7994373,6,-2,-6,-7,-19,44,35,86
1763470495.8132815,14,4,23,31,7,32,-12,25
1763470495.8221517,-11,6,21,4,-14,-45,-79,-51
1763470495.83702,-23,0,1,-20,-12,59,-15,-18
1763470495.8601317,8,-2,-4,-9,9,73,73,4
1763470495.8731427,-7,-13,-29,-23,-38,-94,-3,-52
1763470495.8880715,-11,-6,-38,-33,12,-102,-80,-13
1763470495.8969383,2,24,66,61,10,73,96,-13
1763470495.919383,-15,-20,-3,76,-11,-36,-39,-28
1763470495.9330869,4,-12,-12,-33,-48,-69,3,79
1763470495.9421647,51,13,28,19,-12,18,72,-32
1763470495.956433,14,9,10,-47,5,-38,-62,-2
1763470495.9630704,7,15,48,42,-23,52,2,-63
1763470495.9794497,17,21,-40,-88,-4,-95,-34,10
1763470495.9932747,24,3,-15,2,0,30,34,79
1763470496.002062,-32,-32,-19,3,-76,-103,-6,-13
1763470496.0163257,-19,-19,12,3,39,-4,-18,-24
1763470496.0308247,25,30,-28,-47,35,1,25,27
1763470496.047027,14,-12,-15,0,-25,13,-56,-18
1763470496.0620594,-48,-45,27,22,30,-3,-107,-34
1763470496.076283,-10,42,29,30,-4,-23,27,-34
1763470496.0830557,13,18,63,2,25,37,18,-16
1763470496.099548,12,-26,-44,-66,-94,21,58,-22
1763470496.1221452,-17,37,6,-15,28,-76,-36,-26
1763470496.1364045,23,34,21,56,29,47,11,-14
1763470496.143312,-5,-55,2,-12,-8,58,23,-92
1763470496.1669056,1,24,-20,-70,17,17,-12,-47
1763470496.1820555,0,-7,-60,20,-1,-29,3,-10
1763470496.19633,39,-86,1,-22,-5,51,-10,51
1763470496.2032042,-15,-42,-31,42,-14,65,61,-51
1763470496.2211463,3,23,13,10,-2,-9,-49,-56
1763470496.2422292,-12,10,19,50,13,68,11,-5
1763470496.2565575,-14,29,22,-24,-17,-92,-17,-4
1763470496.2634182,5,-61,49,7,-5,6,-15,10
1763470496.2795317,-6,-23,0,11,23,86,31,51
1763470496.3099642,-29,16,-55,33,-25,-58,-12,3
1763470496.3159504,6,-47,20,16,-28,39,-84,-31
1763470496.3244183,13,16,-17,-19,-8,-65,21,48
1763470496.3394175,16,-8,9,25,5,31,-1,-38
1763470496.361968,-31,-16,-21,-79,31,-11,49,-28
1763470496.3756182,-8,17,4,-2,-39,10,-49,-39
1763470496.38451,2,28,1,21,11,-35,-10,10
1763470496.399643,3,-35,-2,35,6,-29,16,-33
1763470496.4221714,-26,-34,31,19,-32,6,5,22
1763470496.4444406,11,27,23,-20,1,-81,30,76
1763470496.459442,3,12,30,11,20,36,62,-10
1763470496.4820826,6,-7,3,-1,-34,-9,-60,-82
1763470496.504401,24,-4,7,22,55,39,-34,35
1763470496.519386,-4,-50,-12,25,-17,-78,-21,-29
1763470496.549494,1,4,-2,-73,2,-10,-2,10
1763470496.555552,35,-10,-8,-9,17,74,38,18
1763470496.5646234,-17,-7,-8,-16,-5,-9,-5,1
1763470496.5799959,-4,16,-6,35,-14,-51,-33,20
1763470496.58577,-8,41,58,-5,42,75,-35,18
1763470496.6019013,2,-39,-47,-51,25,23,-17,74
1763470496.6156616,-10,28,1,11,55,105,39,-43
1763470496.62476,2,-17,-61,-35,21,-5,-29,27
1763470496.6470637,-25,-8,55,17,-14,-29,-65,-86
1763470496.661916,22,35,28,20,-13,35,73,100
1763470496.6758401,-16,57,5,-11,-29,1,27,-57
1763470496.684548,-11,-7,-24,-56,1,-39,-17,52
1763470496.699442,0,1,-11,-62,-9,-19,-25,-43
1763470496.721909,-29,7,4,18,-14,10,-33,-19
1763470496.7357566,31,9,64,15,-9,-7,53,-19
1763470496.7445893,13,31,17,22,43,-1,36,12
1763470496.766937,-33,-30,-41,36,50,-21,-29,34
1763470496.7819874,-5,-23,45,38,7,24,51,-43
1763470496.7956202,-14,-54,-6,-5,-43,-57,-52,18
1763470496.8045285,3,41,-19,-35,-23,-46,-33,-21
1763470496.819678,14,22,-4,36,-23,-15,-24,26
1763470496.8422296,0,28,-51,-21,7,-68,-12,-49
1763470496.8644593,13,28,8,38,-34,-72,14,-24
1763470496.8794777,-10,-14,-52,-24,-21,55,-30,-29
1763470496.9094124,-22,-22,9,30,19,70,26,22
1763470496.9155807,-6,-8,-49,-16,44,-46,-44,-32
1763470496.9245994,-4,2,3,3,-19,-16,-38,-6
1763470496.9396152,10,-5,-40,-8,2,32,5,46
1763470496.9619722,-20,-32,33,-18,45,45,13,25
1763470496.9680862,-28,22,-95,34,-54,-27,-17,-55
1763470496.9755669,-7,15,-10,26,54,56,25,4
1763470496.9846582,4,-103,-1,-17,-48,16,46,24
1763470496.9994676,16,35,17,12,-84,-52,-46,10
1763470497.0219593,-21,-71,-29,-11,-61,39,-16,-51
1763470497.0444329,-14,58,-66,-52,18,-27,-22,40
1763470497.0598416,56,-12,33,-39,-30,14,1,-9
1763470497.0819545,-21,22,41,-67,0,-12,-71,-21
1763470497.104644,4,-24,64,-3,-49,-89,-27,-8
1763470497.1187623,-23,57,13,16,8,9,7,-3
1763470497.1255655,1,6,-2,-23,44,33,-51,48
1763470497.1425598,-8,-100,-33,-13,-8,-8,56,-17
1763470497.1648593,-32,-12,37,53,15,14,-14,-87
1763470497.1870213,27,29,-19,-2,-26,103,61,37
1763470497.202441,5,-7,21,-21,6,-56,-21,18
1763470497.2320669,12,-3,3,117,83,-12,-55,29
1763470497.238902,-6,4,-37,-46,-1,-32,-27,-13
1763470497.2455933,-17,-39,33,65,-4,-43,-31,-50
1763470497.2621076,9,-8,6,7,44,76,39,20
1763470497.2844787,5,31,-16,-9,-17,-120,-5,-30
1763470497.2988908,5,0,-39,-82,-46,-51,8,0
1763470497.3056333,22,-23,15,-61,29,9,32,64
1763470497.3221974,-23,-9,-1,0,5,-17,84,-23
1763470497.3445425,13,29,35,35,-24,5,29,86
1763470497.358976,-10,0,-8,43,8,22,21,-4
1763470497.3657024,-18,1,-2,0,-12,-47,-1,-40
1763470497.3823206,-2,7,-30,-25,17,-24,-42,3
1763470497.4044254,-13,-26,-6,-12,12,43,-82,-21
1763470497.4188664,16,-13,39,-5,-25,4,13,3
1763470497.4256012,-36,-62,7,30,-1,14,33,-7
1763470497.4420574,-5,-32,24,41,43,-5,-10,11
1763470497.4648275,-8,39,0,-12,-96,-33,-3,-42
1763470497.479512,7,-9,-4,-7,-3,-20,25,16
1763470497.4855711,2,19,49,20,39,50,27,-10
1763470497.5096061,18,-19,-10,-8,5,-7,-18,-12
1763470497.5247588,1,-1,-35,-18,18,10,-5,26
1763470497.538132,-19,-10,18,77,-34,3,-3,52
1763470497.547181,-5,14,4,3,-76,7,78,-17
1763470497.5621057,-7,12,14,-23,-8,-52,3,-22
1763470497.5845122,41,13,-28,-27,-42,45,53,25
1763470497.5982347,6,-1,-13,-22,-2,-13,-5,16
1763470497.6070595,0,-3,-12,-17,31,-20,-36,-4
1763470497.622087,-26,0,12,-2,39,-8,-1,-40
1763470497.6444306,-26,2,2,25,-8,12,-14,-63
1763470497.6581645,0,17,-45,-32,13,53,28,-16
1763470497.6693249,-20,56,44,-19,-21,-20,26,-65
1763470497.682777,-20,-51,-1,1,-3,-61,-24,-25
1763470497.7047677,18,-3,4,-59,-17,61,-1,79
1763470497.7110834,0,-12,-15,-11,27,-61,-47,-33
1763470497.718364,57,26,30,55,5,5,48,97
1763470497.7271671,-23,-38,-46,-10,81,57,10,5
1763470497.7420237,-19,4,29,15,7,-7,-4,7
1763470497.7644448,5,-22,-2,-17,10,-7,58,-5
1763470497.7870073,-8,0,43,5,-9,44,-64,24
1763470497.8024027,12,-13,-12,1,31,-25,49,15
1763470497.832042,-21,-12,-18,-34,-2,19,12,-50
1763470497.8381624,9,9,-5,37,-8,-71,-62,-5
1763470497.8472168,-14,-2,-12,10,39,-35,-17,-12
1763470497.8620758,-8,-5,8,69,-23,-30,25,-26
1763470497.8848,-7,-3,-50,-25,56,26,-27,-20
1763470497.8981674,3,-13,-49,63,39,51,59,-24
1763470497.907109,0,10,-30,-37,-10,-6,7,39
1763470497.9222898,-15,21,8,-55,-42,14,-31,-6
1763470497.9447613,-14,0,-23,-50,34,39,-61,-47
1763470497.9582403,-15,-13,7,-47,16,-16,-14,-48
1763470497.9745681,-10,4,-20,31,-28,19,19,-21
1763470497.9895437,52,12,48,11,-10,-4,35,81
1763470498.0045476,-33,-2,-35,-16,-30,-9,33,-63
1763470498.0261014,5,13,27,3,-17,40,-9,59
1763470498.0346735,-20,-5,-25,-10,22,56,46,-35
1763470498.0423324,3,-14,15,-30,-59,-35,-73,-52
1763470498.0648432,-23,-21,-31,-3,22,-21,6,-62
1763470498.0875413,6,33,51,4,18,21,-14,30
1763470498.1098392,8,25,5,1,33,25,37,27
1763470498.124484,-18,-13,-1,-31,23,-47,6,-14
1763470498.1460812,23,-8,4,21,-18,-42,-16,61
1763470498.1546416,7,-5,18,27,46,69,-36,-79
1763470498.1612217,-9,-15,-5,13,-37,46,24,-84
1763470498.1681678,17,-3,19,-13,12,-10,32,-2
1763470498.1845362,5,20,-6,-20,26,-13,-20,-5
1763470498.2070353,-7,-24,-32,25,36,-52,18,25
1763470498.2212815,-3,-9,-10,-14,-36,-18,-32,-32
1763470498.228939,0,4,28,27,-9,20,1,7
1763470498.252026,24,23,31,53,55,87,62,95
1763470498.2674592,-2,0,14,73,27,-5,-69,-24
1763470498.281294,3,3,-29,-57,5,-47,-21,-3
1763470498.2955973,-24,-8,-28,-39,-4,18,69,-28
1763470498.3119233,-7,0,21,-3,-32,42,-6,-5
1763470498.3269286,20,0,23,28,23,18,-17,-11
1763470498.34139,-14,-20,22,37,-35,-28,-19,-31
1763470498.3558087,2,16,8,76,23,5,-25,-54
1763470498.364675,-5,12,5,-25,-38,-32,12,-15
1763470498.387956,-13,-19,-23,0,-54,19,71,-21
1763470498.3932207,-16,-4,5,-9,-16,10,4,-22
1763470498.4013736,5,5,-8,-13,13,-37,-20,19
1763470498.408069,-7,4,2,-8,-17,-9,-34,-30
1763470498.424352,-18,-15,-19,-69,-52,-4,9,4
1763470498.4307723,-6,8,16,-10,0,12,7,15
1763470498.4471269,-21,-15,-54,-85,34,10,4,-2
1763470498.4608552,14,7,7,41,86,-16,70,-7
1763470498.4697459,-2,-10,12,57,4,23,21,-7
1763470498.4846876,5,4,19,18,18,5,-55,3
1763470498.5072103,20,12,20,-6,43,60,-20,4
1763470498.5295486,4,-12,2,8,-17,-43,-87,67
1763470498.5451624,-20,-13,-37,-50,-41,-57,4,-9
1763470498.5745873,14,-4,-22,51,67,75,15,21
1763470498.5895407,-7,4,22,47,41,39,-36,-37
1763470498.6044207,-21,-1,19,32,-48,-19,-4,-21
1763470498.626753,1,3,9,-48,-13,-15,8,-16
1763470498.6333325,13,14,25,11,-26,9,54,14
1763470498.6406844,-6,2,2,-3,-23,-37,3,41
1763470498.6497111,4,-20,-35,-27,14,6,-9,-41
1763470498.664504,16,22,18,20,-29,-24,55,16
1763470498.6871305,-3,-15,-12,40,-46,-32,83,-74
1763470498.7094562,-13,-3,-18,3,15,-18,-55,14
1763470498.7249856,-11,-13,-9,-36,-56,5,-21,57
1763470498.747265,-2,-37,-28,-62,-29,51,-56,-35
1763470498.7608173,7,15,11,73,7,-19,-19,2
1763470498.777315,-2,9,44,-41,-16,-25,-10,-14
1763470498.7844791,12,13,3,-46,88,40,11,14
1763470498.8071156,15,6,8,28,-53,42,12,76
1763470498.8208947,-8,-17,-31,-21,15,-41,36,-45
1763470498.8297133,-10,10,32,30,-55,22,7,96
1763470498.8436003,8,-6,0,33,27,20,-3,69
1763470498.8523023,14,12,3,-38,4,31,51,-22
1763470498.8675811,-14,-11,-25,-47,12,-7,-9,-55
1763470498.8806744,17,17,10,-26,-39,2,-8,-34
1763470498.8971179,4,0,3,20,-4,-9,-29,-25
1763470498.9121664,14,14,5,-60,-17,-16,1,-19
1763470498.927099,-19,-2,33,46,2,-11,-16,-17
1763470498.9571795,-17,-5,-10,-1,-15,33,-16,-10
1763470498.9645884,-10,-13,-28,-29,7,-26,30,-1
1763470498.9870703,7,6,-11,12,2,-29,7,-11
1763470499.0094552,-8,-5,3,-3,0,4,-10,-4
1763470499.0394976,-16,-3,6,43,37,1,53,-32
1763470499.0469553,3,-32,-32,66,61,8,16,4
1763470499.0694313,-3,11,12,-40,14,6,-48,-25
1763470499.08389,-2,5,11,-6,-42,5,-39,5
1763470499.0980432,-18,-7,-7,0,-28,-39,42,-32
1763470499.1069803,4,8,28,83,-5,8,16,1
1763470499.129491,3,-2,-7,-12,-55,1,4,36
1763470499.1438577,3,8,19,-49,-66,49,18,-7
1763470499.1505375,-14,-8,-21,-32,72,6,-32,-88
1763470499.1744883,5,-15,-7,7,2,-60,-24,-93
1763470499.1894994,-9,4,-18,-62,52,3,14,12
1763470499.2038016,-12,-12,-12,4,-46,-32,-9,-58
1763470499.2183113,-21,-5,-5,7,1,-61,-61,-15
1763470499.2268903,-11,5,14,57,-14,5,-23,2
1763470499.2496047,-11,-5,-12,-22,8,14,18,15
1763470499.2639608,13,0,-5,-69,-22,-16,-12,11
1763470499.270608,-3,-15,-10,17,16,-37,16,-43
1763470499.2869158,5,-1,-23,15,26,-10,-18,34
1763470499.3093371,-5,-1,11,29,-33,-40,-27,14
1763470499.32459,5,7,20,-6,-22,-13,15,-31
1763470499.3308036,10,6,6,-17,-6,47,-29,-18
1763470499.3473282,10,2,-10,-45,47,20,-17,-17
1763470499.3771825,14,-7,-14,9,-26,-28,-46,66
1763470499.3838813,-10,5,8,-20,20,9,29,-36
1763470499.3909602,-13,0,-51,-75,-37,-32,40,23
1763470499.407028,-4,15,-4,25,30,3,37,36
1763470499.4294713,-23,-34,4,-16,24,-7,4,-23
1763470499.4519663,19,16,36,47,37,34,49,9
1763470499.4670613,20,13,23,24,-8,7,-4,-54
1763470499.4971268,-18,4,-49,-26,-17,-22,-9,4
1763470499.511984,-9,-3,8,-30,32,26,24,63
1763470499.5271087,-3,6,-11,-54,-76,7,-14,-57
1763470499.549642,-16,-23,102,32,-24,24,-41,-12
1763470499.5633564,8,-16,-15,7,0,-29,-14,62
1763470499.5722291,8,6,-15,40,30,-41,-48,-51
1763470499.5945542,26,39,50,56,14,20,20,-4
1763470499.6094894,-9,-34,-85,-48,-34,-14,64,-50
1763470499.623061,-2,-5,18,27,28,-25,-39,-55
1763470499.6396337,7,25,14,1,28,6,23,41
1763470499.6470995,-2,-12,-3,19,-10,-4,-24,-7
1763470499.6695738,4,25,29,35,-18,-53,0,12
1763470499.6831248,4,15,-11,-2,32,-41,16,37
1763470499.6922452,-1,-21,-9,-4,-42,-27,-38,-8
1763470499.7070482,-13,0,19,10,0,-75,-18,-70
1763470499.7295656,6,46,6,31,-4,22,2,-16
1763470499.7431703,11,14,-9,6,-15,15,-6,7
1763470499.7521713,-6,2,-9,-7,67,67,19,-22
1763470499.7746403,12,-2,-28,-50,75,50,46,45
1763470499.789519,1,-2,-6,9,15,61,-35,13
1763470499.8195403,-17,-34,-37,-50,-57,-36,-33,-9
1763470499.8269742,-16,21,26,45,33,15,0,-3
1763470499.8494754,3,-2,-56,-1,25,18,6,5
1763470499.8721106,-6,12,22,-3,-4,6,0,-29
1763470499.8876328,-5,-23,-4,-11,2,-1,13,-1
1763470499.9095,-5,-10,3,-5,-18,-7,-9,-14
1763470499.9320512,1,-14,-19,-28,-29,-4,0,-17
1763470499.9470305,-16,-4,-4,-15,-30,2,-3,-27
1763470499.9770353,26,13,12,28,29,-3,-16,6
1763470499.9956212,-23,-20,-8,-38,-51,-23,-17,7
1763470500.0066462,22,-2,-16,-30,-29,-8,3,41
1763470500.0212169,-30,9,22,7,0,-11,4,18
1763470500.029879,28,2,5,0,-2,-2,23,17
1763470500.05209,-39,-3,9,5,17,-2,-16,-16
1763470500.0665512,6,-6,-5,4,-17,24,14,8
1763470500.0733335,10,13,19,-8,-26,-8,-1,4
1763470500.0970702,-4,2,-5,12,35,10,37,8
1763470500.1120355,4,-9,12,10,-2,-6,-15,6
1763470500.1255949,4,-23,-6,6,34,3,2,5
1763470500.1346996,0,2,3,-6,-23,1,-7,5
1763470500.1496227,1,14,0,-8,-17,-3,-12,-12
1763470500.1719632,13,9,2,3,13,0,0,2
1763470500.1953063,5,7,-3,-8,-6,-10,-6,-5
1763470500.210094,2,-2,-20,-5,-17,0,-4,2
1763470500.2412567,-5,0,15,24,8,0,-2,-1
1763470500.2546685,-9,-29,-6,-13,-16,0,-4,1
1763470500.2694485,-10,-2,8,-3,-10,-5,-1,1
1763470500.291976,-3,4,-13,5,-5,-1,-2,-4
1763470500.3056862,-1,9,11,0,-6,0,2,-1
1763470500.3147228,-12,-3,-11,-12,-1,-5,-5,-7
1763470500.3296773,9,-20,-5,-15,-13,-4,1,2
1763470500.3520834,-19,4,-10,-1,-7,-3,-8,-8
1763470500.3657932,-1,9,3,-6,-4,3,4,-1
1763470500.3822582,-5,-3,2,-9,-1,2,-4,1
1763470500.3895857,1,4,8,9,5,-3,-5,-1
1763470500.4120607,-1,-7,-8,15,26,3,-3,-2
1763470500.4258497,-9,-1,-1,-16,-14,-5,0,-1
1763470500.4346116,3,-1,3,9,11,-2,-3,-4
1763470500.4496412,-5,12,6,0,0,2,-1,-1
1763470500.4720352,4,1,7,12,5,1,2,0
1763470500.4862492,-4,-2,-1,0,4,-2,-1,0
1763470500.4945064,4,-1,1,3,2,-1,0,-1
1763470500.5095966,8,-2,-6,-11,-9,-3,0,0
1763470500.5321376,3,-2,-2,-8,-7,-1,-3,-2
1763470500.545859,-3,-2,-2,-2,-1,0,0,-1
1763470500.554975,-4,-1,-1,3,1,-3,-2,-1
1763470500.5696292,-3,-1,-3,-2,-2,-2,-1,-3
1763470500.592132,0,-2,-1,2,9,2,-2,1
1763470500.6056142,-3,0,-1,1,-2,-2,1,-1
1763470500.6146684,-2,-2,-2,3,3,0,-4,0
1763470500.6296659,0,-2,0,3,2,-5,-1,0
1763470500.6521595,0,0,-2,-5,-5,-2,-2,0
1763470500.6656187,-1,-3,-1,0,4,2,0,-1
1763470500.674592,0,0,0,1,1,2,0,0
1763470500.6894832,-1,0,-3,-1,1,-1,-2,0
1763470500.7119877,-3,-1,-1,-4,-8,0,0,0
1763470500.7255988,-1,-1,-1,2,-1,-2,0,0
1763470500.7345889,-1,-1,-1,1,1,-2,-2,-1
1763470500.7562623,0,-1,-2,0,0,0,-1,0
1763470500.7648835,-1,0,-2,0,-1,1,-2,0
1763470500.7721245,1,-2,-1,-3,-5,-1,-1,-1
1763470500.7856638,-1,-1,0,0,1,-1,-2,0
1763470500.7947066,-3,-1,-2,-1,-2,-1,0,-1
1763470500.8094587,0,-2,-1,-2,-1,-2,-1,-2
1763470500.8320544,-1,0,-1,1,0,-1,-1,-2
1763470500.8545191,-1,1,-2,0,0,2,-2,-2
1763470500.8687997,-2,-2,0,-3,-1,0,-1,0
1763470500.8757358,-1,-2,1,-2,1,0,-2,0
1763470500.8919308,-1,-2,-2,-3,-1,0,-3,-1
1763470500.9145505,-1,-2,-1,0,-2,-1,-1,-1
1763470500.9294944,-2,-3,1,0,-1,-1,0,-1
1763470500.9519086,-1,-1,-2,-1,-2,-3,-1,-1
1763470500.9745333,1,-1,-1,0,1,-1,0,0
1763470500.988847,-1,0,-1,0,-3,-3,-4,-2
1763470500.9955697,-1,-1,0,-2,-1,-2,-1,-1
1763470501.01198,-1,1,0,-1,-1,-2,-1,-1
1763470501.0350497,0,-2,1,-2,1,1,0,-1
1763470501.0488122,-2,0,-1,0,-3,-3,-1,-1
1763470501.0556011,-1,-2,-2,-12,1,0,0,-1
1763470501.071959,0,0,-2,-3,-3,-4,-1,0
1763470501.0945814,-2,0,-2,0,-1,0,-1,0
1763470501.108852,0,0,-2,1,0,-1,0,-1
1763470501.115597,0,0,-1,2,-1,-2,1,-2
1763470501.1320572,-1,-3,-1,-4,0,-2,-1,0
1763470501.1545262,1,-1,-1,0,-1,-1,0,-1
1763470501.168856,0,0,-1,-2,-2,1,-1,-1
1763470501.1760132,0,-1,-2,-1,-1,-1,0,0
1763470501.1930087,-3,-2,-1,-3,-1,0,-1,0
1763470501.214656,-1,-2,-1,0,-1,1,1,-2
1763470501.2288704,-1,-1,-2,0,-2,-3,-2,-1
1763470501.2356858,-1,0,-1,0,-1,-3,0,-3
1763470501.2509937,-1,-2,0,1,0,1,1,1
1763470501.267374,-1,-2,0,-2,-4,0,-1,-1
1763470501.2744846,0,0,-1,-1,-2,-3,1,-1
1763470501.2880907,0,-1,0,1,0,2,1,0
1763470501.297095,-3,-1,0,-1,-3,-1,-1,-1
1763470501.311982,-1,-1,-1,-2,-1,-2,-1,-2
1763470501.3344865,-1,-2,0,-1,-1,-2,-1,-2
1763470501.3482258,-2,-1,-2,-2,0,0,-1,0
1763470501.3572397,-2,-1,-3,-1,0,-2,-1,-1
1763470501.371981,0,-1,-2,-2,-2,-1,-2,-2
1763470501.394583,0,-2,-1,-2,-1,-1,0,-2
1763470501.4085655,-1,-2,-1,0,2,0,-1,-1
1763470501.4171784,-1,-1,-1,-2,1,0,-2,-1
1763470501.431112,-3,0,-1,-1,-2,-1,-1,1
1763470501.4396195,-2,-2,0,-2,-2,-2,-1,-3
1763470501.4545567,-2,-1,-1,0,-1,-2,-1,-2
1763470501.4681156,-1,0,0,-1,0,-2,-1,-1
1763470501.4772477,-1,-1,-1,-1,-1,0,-1,0
1763470501.49198,-2,-1,0,-1,-2,0,-3,-1
1763470501.5145457,-2,-1,-1,-2,-1,-3,-1,-1
1763470501.5282261,-1,-1,2,0,-1,1,-1,0
1763470501.537181,-1,-1,-1,0,-1,-1,-1,-1
1763470501.5519416,-1,0,-1,-1,-2,-1,0,-2
1763470501.5745203,0,-2,-1,0,-2,-1,0,-2
1763470501.5881948,0,-1,-1,-4,0,-1,-2,0
1763470501.5972044,-1,-1,1,9,11,-1,0,-1
1763470501.6121988,0,-1,-1,-3,-1,0,0,-1
1763470501.6336265,-3,-1,-3,7,20,-1,0,-1
1763470501.6425772,0,-2,-2,1,-2,-1,1,-1
1763470501.6481285,-3,-1,-3,-10,-16,-2,-1,-3
1763470501.6572337,0,-2,-2,-2,1,0,-1,-1
1763470501.6720798,-1,0,-1,4,3,0,0,1
1763470501.6945658,-1,-1,-1,-1,0,-1,-2,-2
1763470501.7081466,-1,-2,-1,0,-2,-2,-3,-2
1763470501.7174501,0,-2,2,1,3,-1,-2,-1
1763470501.7323272,-1,1,0,-3,-5,-1,1,0
1763470501.75462,0,0,1,-3,-6,-1,-3,-1
1763470501.777397,-1,-1,-2,-2,0,0,0,-1
1763470501.792225,0,-1,0,0,0,-1,0,-1
1763470501.8146613,-1,-3,0,-1,-2,0,-1,-1
1763470501.837007,-1,-1,-2,-1,-2,0,0,0
1763470501.8521605,0,0,-2,-2,4,-2,-3,-1
1763470501.874755,-2,-1,-1,-11,-11,-2,0,0
1763470501.8973806,-2,-3,-2,5,3,0,-2,0
1763470501.9198215,0,-1,0,1,2,-1,-1,0
1763470501.9345987,0,0,0,2,-3,2,1,-1
1763470501.9569912,-2,0,-1,1,2,0,-1,-1
1763470501.9632616,-2,0,-1,-2,1,-3,0,-1
1763470501.971339,-1,-1,-1,-2,-2,-2,0,-1
1763470501.9781508,-1,-3,0,-4,-2,-1,-3,-1
1763470501.9946926,0,-1,0,4,3,-2,-1,0
1763470502.0171182,0,-1,-1,-4,-3,0,-1,-2
1763470502.031694,-2,-1,-2,-1,-1,-1,-1,-2
1763470502.0383782,-1,-1,-1,0,0,0,0,-1
1763470502.0548668,0,-2,-2,-1,-2,-1,-1,0
1763470502.077097,-2,1,-1,-1,-4,-2,0,-1
1763470502.0996108,-1,0,1,0,1,-1,-2,-1
1763470502.114801,1,-2,0,-3,-3,-2,-1,0
1763470502.1373134,-2,-1,-3,-1,3,1,-1,-3
1763470502.1515374,-1,0,1,0,1,0,1,0
1763470502.1584187,-2,-1,-2,-5,-6,-1,-2,0
1763470502.1744525,-2,-1,0,7,12,-1,-2,-1
1763470502.1971605,-1,-1,-4,-5,-5,0,0,0
1763470502.2109463,-1,-3,-1,0,-5,-2,-3,-2
1763470502.2196174,0,0,-1,-2,-2,0,-1,0
1763470502.2348852,0,-1,-1,-1,-4,-2,-1,-2
1763470502.2570808,0,-1,-1,-3,-1,-2,0,-1
1763470502.2709002,-2,-1,0,-1,-1,-1,1,-2
1763470502.2797441,-2,-2,-1,1,-1,1,-2,0
1763470502.2944658,-1,-1,-2,-5,-3,-3,-2,-1
1763470502.3174105,-1,-2,-2,1,-2,-2,-1,-1
1763470502.3309083,-2,-1,0,0,1,-2,-3,0
1763470502.339736,-1,-1,-3,0,-3,-4,-1,0
1763470502.354626,-1,0,-2,-2,-5,0,0,-1
1763470502.3771868,-1,-1,-2,-1,-1,-3,-1,-2
1763470502.390742,-1,0,0,0,-1,2,0,-1
1763470502.3996224,-1,-2,-1,-4,-3,-3,-3,0
1763470502.4137828,0,-2,0,-2,0,-1,-1,0
1763470502.422078,-1,-1,-1,0,-1,-1,0,-3
1763470502.4370797,-1,-1,1,-2,-1,-2,-1,0
1763470502.4508495,-1,-1,0,-2,0,-1,1,-2
1763470502.4596894,-1,-1,-2,0,0,-1,-1,-1
1763470502.4749374,0,-2,-1,0,-1,-1,-1,1
1763470502.4971647,1,-1,0,2,2,1,-1,0
1763470502.5109434,0,1,-2,-3,-6,-2,-1,0
1763470502.519711,-2,-2,-1,-2,-1,-1,0,-1
1763470502.534486,0,-1,-1,1,1,0,-1,-2
1763470502.5572338,0,-2,-2,0,0,-1,0,-1
1763470502.570902,-3,-1,-1,-1,-2,0,0,0
1763470502.5796053,-1,-1,-2,1,0,-1,-2,-2
1763470502.5947864,-2,-2,-3,-2,-1,0,-1,-1
1763470502.6182353,-1,-1,-1,-3,-2,0,0,-1
1763470502.631632,-1,0,-1,-1,-1,-1,0,0
1763470502.639935,-1,0,-3,-2,-2,-1,-1,0
1763470502.6545553,0,-1,-1,1,-2,0,-2,-1
1763470502.67697,0,-1,-2,-2,0,-1,0,-2
1763470502.7071,0,0,0,-1,0,-1,0,-1
1763470502.7144701,-3,-3,-2,-1,-1,-1,-3,-1
1763470502.7370741,-3,-2,0,-2,-1,0,-1,-1
1763470502.75967,-1,0,-2,0,-1,-2,0,0
1763470502.7746112,1,-3,-3,-2,0,0,-1,0
1763470502.7972603,1,-1,0,-1,-1,-3,-2,-3
1763470502.8187814,-2,-1,-1,-1,0,0,-2,-1
1763470502.8271842,-1,0,-2,0,-1,1,0,0
1763470502.83492,-2,1,-1,1,-1,0,-1,-1
1763470502.8573012,-1,-1,0,0,-1,-1,-1,0
1763470502.8796866,0,0,-1,1,-1,-1,-2,-2
1763470502.8939874,-1,0,0,0,-1,-4,-2,0
1763470502.900722,-1,-1,0,-1,-2,0,-1,-1
1763470502.9171617,-3,-1,-1,-1,-3,0,-1,0
1763470502.9401937,-1,-2,-2,-3,-1,-1,0,0
1763470502.9539042,-1,-1,-2,1,0,-2,-1,-2
1763470502.968306,0,-2,0,1,-1,-2,-1,-1
1763470502.9762514,-1,0,-2,-1,-2,0,0,-1
1763470502.9845314,-1,-2,-1,-2,-2,-2,-2,-1
1763470502.9995182,-1,-1,-1,-2,-1,-1,0,-1
1763470503.0137932,-2,-1,-1,-2,0,-2,-2,-2
1763470503.020577,-1,-1,1,-2,-1,0,-1,1
1763470503.0371783,-3,0,-2,-1,-1,0,-2,-1
1763470503.060134,0,-2,-1,1,2,0,-1,-1
1763470503.0742924,-2,0,-1,-2,-1,0,0,-1
1763470503.0809252,0,0,0,-1,0,-2,-1,0
1763470503.0969405,-1,-1,-2,-3,-1,2,-1,0
1763470503.1032474,-2,1,0,-3,0,-2,0,0
1763470503.1195812,-1,-1,0,0,-1,-2,-2,1
1763470503.1338606,-1,0,0,0,1,1,-1,-3
1763470503.1408842,-1,-1,0,1,-1,-1,-1,-1
1763470503.1572752,0,0,0,0,0,0,1,0
1763470503.1795752,-2,-2,-1,-1,-1,-2,0,1
1763470503.1935444,1,-1,-2,-1,-3,-3,-3,1
1763470503.2024379,-1,-1,-2,1,-1,1,0,-1
1763470503.2171423,-1,0,0,-3,-2,-2,-1,-2
1763470503.2395763,-1,-1,-1,0,0,-1,-1,-1
1763470503.253494,-1,-2,-1,-2,-1,-3,-1,-1
1763470503.2624714,-1,-1,-1,1,-2,-3,0,0
1763470503.2771056,-2,-1,-2,-1,-1,1,-1,-2
1763470503.299624,1,-2,-2,-2,-1,-1,2,-1
1763470503.3135605,-2,-1,0,-4,-1,0,-1,-2
1763470503.322559,0,0,0,-3,-1,-1,-1,0
1763470503.343724,-1,0,-1,0,-1,-1,-3,0
1763470503.3523579,-1,0,-1,-2,0,-2,-1,-2
1763470503.360062,-1,-1,-3,1,0,-1,-1,-1
1763470503.3736093,-2,-1,-1,0,0,-2,0,-1
1763470503.3822985,-2,-2,-2,-2,-2,0,-1,-1
1763470503.3972847,-3,-2,0,1,0,0,-1,-1
1763470503.4195592,-1,-1,-2,-2,0,-1,-1,0
1763470503.433262,-1,-1,-1,2,-2,-1,0,-2
1763470503.4423265,0,0,-1,-1,-1,-1,-2,0
1763470503.4569962,0,-1,-1,-3,1,1,-1,1
1763470503.479562,0,-1,-1,0,0,-2,0,-2
1763470503.4933074,-2,1,0,0,-2,1,1,-2
1763470503.50224,0,-1,0,0,0,1,-1,-2
1763470503.5170946,-1,0,-2,0,-1,-1,-2,-1
1763470503.5402162,-1,-2,-1,-3,0,-1,-1,-1
1763470503.5533412,0,0,-2,-1,-2,-3,-3,-1
1763470503.5698223,-1,1,0,0,-1,-2,0,-2
1763470503.577042,-2,-1,-1,-1,-1,-1,0,-1
1763470503.599642,-2,0,-1,-1,-1,-2,1,-1
1763470503.6297848,0,-2,1,0,-2,1,-3,-1
1763470503.6371326,-2,-1,0,0,-1,-2,0,-1
1763470503.6597245,0,-1,-1,0,-2,0,-2,0
1763470503.6820025,-1,-3,-1,-2,0,-2,-1,0
1763470503.6966925,-2,-2,0,-2,-1,-1,-1,-2
1763470503.7033777,-2,-1,0,-2,-1,-2,-2,-1
1763470503.719539,-1,-2,-5,-1,1,-2,-1,-1
1763470503.7423098,-1,0,-1,-1,-1,-2,1,1
1763470503.757226,0,1,-1,0,-3,-2,-2,0
1763470503.7798822,-1,-1,-4,-2,-2,-1,0,-2
1763470503.8022487,-3,-1,0,0,1,-1,0,-3
1763470503.8168354,-9,-21,-12,-4,5,-2,-3,-3
1763470503.8232183,-8,-29,9,-8,-6,-4,1,-11
1763470503.8397179,12,4,12,-12,-27,6,5,-8
1763470503.8621335,17,-7,22,18,3,1,-2,1
1763470503.8758764,1,3,-9,-6,-3,-3,-2,2
1763470503.884622,5,-8,6,4,7,-3,-10,5
1763470503.9070742,2,17,18,13,26,2,-4,0
1763470503.9220016,11,16,-17,7,23,-2,32,8
1763470503.9356658,-24,-24,-17,-18,-23,-8,-18,-5
1763470503.944725,7,4,5,4,8,-1,15,2
1763470503.9597402,-13,-1,0,-1,6,1,-5,-3
1763470503.982132,8,-3,-8,-20,-28,-5,-2,-2
1763470503.995715,-11,2,2,-2,-2,1,-1,0
1763470504.004633,-6,-2,-4,-2,2,-2,-1,-2
1763470504.019594,-3,3,4,5,-9,0,-4,0
1763470504.0421517,0,-3,-4,-10,-1,4,2,0
1763470504.0557477,-3,-1,-2,3,15,-11,-8,-5
1763470504.0645795,-4,-3,0,2,13,8,1,-3
1763470504.0796342,-5,-3,1,0,5,8,2,-1
1763470504.1019998,-1,-2,-8,-10,-17,-34,0,1
1763470504.1409252,3,4,10,0,-6,-17,2,4
1763470504.1472156,-8,-8,-6,-16,-21,-2,-21,-7
1763470504.1620812,-6,-1,1,5,4,11,-12,-9
1763470504.1757677,-3,-5,-5,1,-6,3,3,0
1763470504.1846967,-8,-7,-6,-8,-10,-14,3,-7
1763470504.199612,6,-1,0,-2,5,16,-4,7
1763470504.2221193,-21,-7,1,10,6,34,24,34
1763470504.235833,18,11,26,25,11,-7,18,5
1763470504.244613,15,4,-5,16,14,45,63,127
1763470504.2596347,-6,8,19,0,17,94,92,-73
1763470504.282114,12,-15,-4,45,70,-49,-64,71
1763470504.2958834,-20,-31,-69,-55,-59,-28,-41,-59
1763470504.3048763,8,4,-21,-40,13,-54,-72,26
1763470504.3188367,-5,6,-7,37,13,-5,-4,-41
1763470504.3273447,-30,-11,11,-52,-38,46,105,-27
1763470504.342324,-5,-1,6,-50,5,38,-15,93
1763470504.3560019,16,14,17,-21,-11,70,81,15
1763470504.364766,-9,-5,-6,-44,-50,-23,-21,-22
1763470504.3797226,14,14,-3,-33,13,-85,-44,-13
1763470504.4035296,8,-7,-30,-24,-77,-89,-28,-8
1763470504.4165716,-17,9,31,20,66,101,-32,18
1763470504.4247575,19,4,7,49,-11,40,-32,1
1763470504.4428046,4,-17,-16,-37,-29,-66,26,33
1763470504.4620855,3,6,36,98,-22,-29,34,-62
1763470504.4757404,-8,-14,16,67,15,-19,16,6
1763470504.4847035,-3,-13,-16,25,-1,-15,14,27
1763470504.4995341,-7,14,-41,-53,-3,-9,-21,-41
1763470504.5219731,-14,-15,-14,-33,16,-3,-54,-10
1763470504.5358043,11,-2,-6,14,-17,20,29,33
1763470504.5521722,38,-5,22,108,-10,-28,-50,74
1763470504.5588245,6,25,38,25,13,-8,-31,-28
1763470504.5656013,-24,-27,4,-57,-34,-23,-51,-38
1763470504.5820575,-11,-15,32,22,-50,-33,-6,-5
1763470504.6046302,-23,-19,-44,-22,-37,45,81,-7
1763470504.6196406,46,16,-13,34,32,24,-55,60
1763470504.642052,-74,-11,31,6,65,64,-7,-14
1763470504.6647544,14,14,23,0,-46,-49,-65,-11
1763470504.6795678,-12,18,-44,-29,73,-13,-9,32
1763470504.702181,-18,26,-6,-7,-13,-39,-38,-27
1763470504.7246833,52,-4,22,5,-42,-13,47,12
1763470504.7394822,3,-11,4,-6,2,91,81,-14
1763470504.7458115,-15,17,9,83,28,11,8,23
1763470504.762099,13,20,37,-9,6,21,37,4
1763470504.7847602,5,-1,9,-18,-7,-11,-94,-18
1763470504.798857,13,-62,-47,10,-5,-18,0,8
1763470504.8058467,7,22,33,-75,31,20,-7,101
1763470504.8223755,2,-19,-43,-9,-57,27,-31,83
1763470504.8445733,-49,6,26,71,-61,-60,-2,-35
1763470504.858975,-3,-5,8,-42,24,-53,-12,-42
1763470504.8657885,-14,27,30,-63,4,-27,-34,-36
1763470504.8821163,5,-6,-25,-57,83,73,107,45
1763470504.9048057,-53,13,36,7,-2,-30,-57,-94
1763470504.918873,10,-6,-19,-25,-9,-17,-69,-36
1763470504.925683,16,-4,14,69,-77,-11,-33,17
1763470504.9419758,27,11,-14,51,-76,-44,-3,11
1763470504.9720955,-30,33,17,-93,6,20,6,-97
1763470504.9789288,45,-21,28,5,60,10,-47,102
1763470504.9857414,-44,18,10,-69,44,-65,-6,-17
1763470505.0024536,-7,-23,-49,-19,-85,-54,-12,-17
1763470505.0255508,-17,6,-18,92,2,41,27,8
1763470505.039022,58,-16,-3,14,23,9,-49,-1
1763470505.0465448,-27,-16,-5,7,38,-84,34,41
1763470505.06205,16,13,-13,7,-96,-102,-57,-85
1763470505.0844939,-26,24,63,-15,10,25,-4,-78
1763470505.0981944,-23,19,15,25,-23,84,12,-18
1763470505.1071992,-43,-12,-32,-52,5,-20,-15,-62
1763470505.1221201,3,4,14,23,35,91,8,-38
1763470505.1445217,53,9,13,9,29,-13,103,71
1763470505.1582792,-18,-45,-44,37,17,-32,23,44
1763470505.1671,-9,32,22,-21,-28,-2,16,-49
1763470505.1821597,-65,10,7,-50,61,14,4,12
1763470505.2046292,27,-13,-52,-36,18,-105,17,-1
1763470505.2182167,-16,11,23,9,-2,48,4,16
1763470505.2270913,2,-37,-82,15,-12,22,6,10
1763470505.241824,62,15,42,11,21,52,46,45
1763470505.2481806,43,-5,31,9,-70,8,2,34
1763470505.2646115,36,3,12,-11,19,-48,-23,8
1763470505.2781632,-15,-28,-14,28,-72,-38,-25,-3
1763470505.2872977,-7,16,6,47,24,6,7,28
1763470505.302044,-22,-7,-7,-13,77,24,-49,-10
1763470505.3245773,-34,-32,-40,15,-47,-51,-17,-23
1763470505.3382547,9,1,-13,1,19,71,20,-6
1763470505.3473477,-1,26,4,29,-2,-64,-19,19
1763470505.3622751,-14,-25,-43,-116,-15,-9,19,2
1763470505.3847182,10,19,19,-20,9,63,18,73
1763470505.398298,13,21,31,5,-50,-22,10,-11
1763470505.4075682,30,-2,-11,0,-17,16,7,0
1763470505.422509,-12,2,-2,-7,24,-10,-17,-17
1763470505.444769,-12,-13,-34,3,-11,-17,-18,-21
1763470505.4584472,7,-5,18,4,-18,18,4,21
1763470505.4671588,6,4,-15,-25,-34,-5,18,17
1763470505.4825962,15,14,1,-25,-2,-9,28,89
1763470505.5047631,23,-4,-8,-8,61,-26,39,-37
1763470505.518416,3,14,-2,29,5,9,-26,-11
1763470505.527561,-2,-11,-22,-2,-23,6,1,4
1763470505.543267,-20,-10,-10,-41,-59,-37,21,-18
1763470505.5720296,2,-3,2,-16,15,26,-18,24
1763470505.5870705,-21,-8,0,15,-34,-18,30,-49
1763470505.6019995,-23,-13,9,55,6,23,-47,-36
1763470505.6247003,4,26,32,44,34,91,9,-33
1763470505.6545506,-1,-1,-18,29,17,-4,-16,-1
1763470505.6619606,13,1,5,-41,-18,-45,-33,33
1763470505.684142,-4,2,5,-2,-5,-35,-38,4
1763470505.6996434,-6,-4,12,42,0,65,46,25
1763470505.7144897,0,-3,-14,-23,-15,12,8,0
1763470505.721312,-10,-25,-22,62,-9,-7,24,-11
1763470505.7283008,-3,1,7,-41,-18,-31,-30,15
1763470505.7447138,-17,-19,-12,2,40,-1,4,-33
1763470505.7671876,-1,14,25,20,24,76,19,-23
1763470505.789581,9,3,-5,-65,-48,-69,-35,2
1763470505.8046126,8,7,17,31,-33,11,76,37
1763470505.827067,-20,-4,-83,-104,-3,-54,-13,10
1763470505.8415067,14,-4,18,12,25,16,3,6
1763470505.848297,-20,-23,0,10,2,29,47,18
1763470505.8645627,6,6,27,-15,-7,53,18,-42
1763470505.8872137,13,15,28,-7,10,16,-31,-40
1763470505.9014235,-76,7,-22,-34,-28,-60,-42,-80
1763470505.9083173,-10,-58,-97,5,17,-45,-28,-35
1763470505.9246914,25,15,34,4,-27,3,26,42
1763470505.9472942,23,-8,-18,-22,13,-25,34,55
1763470505.96171,36,22,48,127,-28,50,15,31
1763470505.968414,8,19,29,31,-66,-15,-4,85
1763470505.9922776,-21,-20,-2,61,43,26,-37,-8
1763470506.0071793,-22,-23,-43,-42,94,16,-13,-9
1763470506.0286472,-4,-15,1,-23,12,10,-3,-13
1763470506.0372503,-12,-34,-61,48,27,31,7,-13
1763470506.0445323,-3,11,8,-21,0,0,-3,2
1763470506.0671408,5,4,-16,24,-21,-26,-30,-12
1763470506.0810876,-29,-4,24,30,-13,6,-9,18
1763470506.0896568,-20,0,-8,-38,24,13,22,-51
1763470506.1044083,15,-11,8,-23,-21,8,6,12
1763470506.1108682,-17,4,3,-24,-38,3,-29,17
1763470506.1270444,9,13,15,-46,21,4,-15,99
1763470506.1408992,25,24,5,-10,-23,-38,-19,-24
1763470506.1498308,-1,2,-9,-57,-51,14,39,1
1763470506.1646414,-27,-1,-20,-18,2,-1,25,-13
1763470506.1872733,-9,-30,-44,29,-27,-14,-2,-63
1763470506.2009518,-6,-6,28,4,17,-5,27,-17
1763470506.2173264,19,-19,-36,35,10,-53,-36,33
1763470506.2246268,37,19,19,38,-11,11,32,13
1763470506.247086,17,21,-35,4,0,2,-40,-29
1763470506.260874,-9,-5,4,-15,-25,-7,-21,35
1763470506.2696657,13,6,-34,-55,4,51,87,49
1763470506.2846715,1,-26,-27,-4,6,28,55,8
1763470506.3070974,6,40,34,-15,19,-9,62,19
1763470506.3209672,-31,-18,-3,17,14,-41,-61,-33
1763470506.3297956,-2,0,-1,-25,12,17,-16,-30
1763470506.3446696,-4,-22,8,1,-32,6,-11,49
1763470506.367277,-12,-17,7,-2,18,-8,7,-24
1763470506.3809674,0,5,14,-1,84,24,12,-2
1763470506.3900468,-3,19,-26,-10,-11,-15,-26,-30
1763470506.404776,-8,41,-13,-12,-14,-16,-48,-8
1763470506.427338,33,39,29,2,-49,-14,6,80
1763470506.441152,-29,27,-40,9,-9,-35,-18,-49
1763470506.4496772,-2,-5,-49,-48,3,-22,-23,-71
1763470506.4641664,-25,27,23,53,67,35,-32,-70
1763470506.4710405,17,7,53,44,18,-17,-22,-19
1763470506.4948905,-8,-54,-85,-32,-49,-38,-3,-46
1763470506.509637,9,-38,14,-9,-26,-28,-30,-1
1763470506.5242283,10,-17,11,-45,47,12,20,-43
1763470506.5309606,26,-24,-31,-8,22,37,10,71
1763470506.547126,7,43,35,-2,-12,-15,-17,-20
1763470506.5696955,-11,-4,-19,-10,-40,-20,-22,23
1763470506.5921347,-28,-62,2,28,-3,55,6,-13
1763470506.6069965,-10,1,-10,-5,-23,-9,-25,1
1763470506.629702,1,0,-4,-11,13,-8,10,37
1763470506.6439805,-10,20,-9,3,-11,14,42,8
1763470506.650912,-26,-5,1,-50,-9,0,7,-36
1763470506.6671216,32,10,3,41,87,74,6,-6
1763470506.6896603,18,-2,-2,-33,-39,-20,-11,1
1763470506.7039945,19,-9,20,21,-40,-17,76,21
1763470506.7106977,28,-35,-4,-17,20,31,23,53
1763470506.7270632,5,40,57,22,-16,-68,-86,-57
1763470506.7495117,11,-25,-29,-83,18,39,-6,22
1763470506.7638993,0,-32,44,40,-17,-33,5,-27
1763470506.7707753,15,28,21,0,10,-10,-25,-18
1763470506.7871268,14,15,-58,0,13,46,34,-44
1763470506.8096316,-28,-55,65,-24,9,-8,-26,51
1763470506.8233094,22,14,-5,-81,-14,-20,4,-12
1763470506.831366,3,20,24,5,-3,-81,-73,2
1763470506.8545938,-37,-26,-73,20,-34,-44,2,44
1763470506.8690467,14,25,6,25,20,-22,12,39
1763470506.8837626,-32,-53,-62,-33,5,32,21,-20
1763470506.898933,0,-17,1,-24,21,89,113,28
1763470506.9145234,9,2,51,11,9,13,-20,40
1763470506.929836,4,47,3,41,-27,-69,-31,-2
1763470506.9432907,-24,-68,-28,-33,-36,37,46,-81
1763470506.9512596,-16,-20,-17,-10,28,6,-42,24
1763470506.9667668,3,51,58,1,11,21,-22,-16
1763470506.988953,1,1,-14,26,80,-24,-28,-31
1763470507.003329,-13,14,-84,-37,40,-42,-20,0
1763470507.0115006,-10,-17,-16,34,53,-6,-1,-8
1763470507.0346441,7,23,20,-16,-13,45,34,1
1763470507.048919,13,32,38,20,-71,-15,-23,38
1763470507.0633035,22,-33,-74,10,-13,-6,11,4
1763470507.0714045,6,-42,-56,-38,15,-26,-21,-42
1763470507.0863767,20,12,38,22,20,48,59,-27
1763470507.109048,-12,-30,-15,0,10,10,-17,9
1763470507.132259,-21,-27,-3,26,-17,23,-21,-43
1763470507.1463747,-19,1,48,34,67,10,-31,-13
1763470507.1771147,-8,-6,29,-8,-20,13,8,33
1763470507.1922548,-13,-65,-40,-17,-37,-10,0,7
1763470507.206659,17,37,9,-36,-18,-4,16,48
1763470507.229138,10,32,19,-20,-32,-29,1,98
1763470507.2522898,38,24,-28,35,-19,-4,11,72
1763470507.2663455,-30,-6,-27,-2,16,8,-4,-69
1763470507.2889352,6,-6,10,46,13,10,11,-24
1763470507.3115404,-10,-12,-3,3,9,-16,3,-21
1763470507.3281295,24,5,-5,-18,-13,26,40,-68
1763470507.349139,-10,-7,-35,-41,16,3,-28,-29
1763470507.371504,3,-8,26,56,-15,-20,-3,-18
1763470507.3865545,-12,-12,-29,-8,15,-22,-20,-1
1763470507.4090526,-11,14,43,76,66,-10,-14,32
1763470507.431657,14,-8,-3,-12,32,2,-21,3
1763470507.4464967,7,-1,-12,-4,-89,14,-7,51
1763470507.4689457,-25,-30,-74,-85,36,7,-14,-15
1763470507.4914107,-6,1,34,17,-7,-21,-10,-17
1763470507.5066006,7,-7,-38,-41,15,-6,-2,-28
1763470507.529135,16,19,13,-51,-21,72,24,-39
1763470507.5518677,5,20,37,46,-24,-29,-19,33
1763470507.566455,9,8,4,3,-16,-14,-3,3
1763470507.5891764,-1,17,1,43,22,8,5,56
1763470507.6114302,-1,24,-3,0,28,6,24,-27
1763470507.6273222,-12,10,25,-27,-23,14,-8,10
1763470507.6490738,-8,-36,-22,-31,-52,7,53,-18
1763470507.6714382,-9,18,12,20,11,52,-41,-19
1763470507.6863544,-6,-26,-23,-10,-49,-53,7,46
1763470507.7091186,-30,-34,-39,11,21,-12,-25,-34
1763470507.7314641,5,1,33,-4,5,-20,-3,-2
1763470507.7480063,23,-4,-5,38,-7,20,36,-49
1763470507.7690256,-4,-4,-12,33,22,-30,-27,-35
1763470507.7915223,5,5,11,-26,32,10,24,9
1763470507.8058305,5,-15,-5,1,13,-25,-21,55
1763470507.8142715,11,-2,15,28,-5,-15,3,-18
1763470507.8372765,17,-3,-5,-15,74,16,31,34
1763470507.8514798,-4,4,7,-24,-57,-65,-40,-41
1763470507.8666258,-4,3,17,15,-12,1,-9,2
1763470507.8889375,-15,12,26,-19,-20,-19,34,22
1763470507.9283724,-14,6,18,-9,-68,3,-17,-30
1763470507.9338443,19,-8,-34,49,15,55,64,50
1763470507.9492552,-15,-7,-19,-5,-34,1,-4,-5
1763470507.9713721,8,-22,-71,-55,23,26,2,31
1763470507.986465,8,5,34,-16,-14,0,0,-40
1763470508.0090258,-5,-4,4,-58,-7,43,-24,9
1763470508.03156,-7,-1,-1,2,31,-60,-19,-13
1763470508.0547113,-3,14,1,18,-30,-29,-39,-29
1763470508.0691996,0,13,31,1,16,12,12,2
1763470508.0996797,-11,-32,-43,39,65,15,-24,7
1763470508.1057262,7,18,21,22,-7,-1,-8,19
1763470508.1139252,-8,-11,-13,-8,-3,38,-23,-14
1763470508.1290536,-5,-12,-17,-12,-17,21,56,12
1763470508.151401,13,6,-2,27,21,6,-20,-15
1763470508.1657486,-5,-14,-38,16,-28,-48,-27,-38
1763470508.1743126,1,13,2,-4,31,-2,9,18
1763470508.1971693,12,10,37,-6,0,33,57,4
1763470508.2116709,-8,-2,-27,-74,-11,-20,-11,-8
1763470508.2259731,-5,-3,16,9,-20,-5,-5,18
1763470508.2341928,-16,-6,-1,-1,1,-58,-16,23
1763470508.2491891,-4,-7,-8,83,-5,20,-13,22
1763470508.2714095,-4,4,-17,-51,-17,15,15,-25
1763470508.2857962,2,8,20,40,-3,23,-16,2
1763470508.2939079,0,8,15,5,-20,-33,8,-40
1763470508.308864,12,0,5,-9,55,57,16,34
1763470508.331713,0,4,11,12,-25,-29,-15,7
1763470508.3473878,14,8,14,77,0,8,1,95
1763470508.354178,11,6,20,-1,-39,6,9,0
1763470508.368848,-6,7,-4,-39,-2,-5,-21,-19
1763470508.3913863,4,-8,-3,-40,-18,-3,11,-36
1763470508.4138627,-4,3,2,-36,0,-31,0,-25
1763470508.4214656,-3,-12,-55,-58,34,5,-1,-5
1763470508.4373198,2,11,22,38,8,39,42,-3
1763470508.45165,3,-8,-20,-3,17,-29,16,-8
1763470508.4747794,4,11,31,-7,-8,-25,-15,0
1763470508.4892006,-23,-22,-13,8,-10,20,-16,-8
1763470508.5117745,-17,-21,-35,-34,-7,19,6,-7
1763470508.534673,5,0,1,-36,7,-11,7,40
1763470508.549085,6,6,2,-2,23,-18,-43,-13
1763470508.571354,-11,-9,0,24,9,27,12,-24
1763470508.5789924,-13,4,54,15,-27,-45,-43,-58
1763470508.5947173,18,4,-6,-44,-47,-30,-35,70
1763470508.6090112,-24,8,26,16,-6,-44,-9,-14
1763470508.6315248,-4,2,-7,7,-29,-21,26,-22
1763470508.6546085,5,8,4,24,42,57,-7,-4
1763470508.6689165,-12,-13,-23,44,0,4,22,-23
1763470508.6913846,8,-6,-23,-66,11,-12,-26,-7
1763470508.714598,-15,1,2,-16,40,31,-27,-40
1763470508.7291083,2,-16,-23,2,-15,-8,-8,44
1763470508.7513614,2,-3,-10,32,23,-13,22,-1
1763470508.7746155,4,3,11,18,-33,-17,-41,-17
1763470508.789521,4,6,4,-1,43,54,-39,-57
1763470508.8118958,3,7,15,-53,-38,-44,5,-15
1763470508.834618,0,21,32,-81,-26,-25,34,-15
1763470508.8572724,-15,-18,1,35,-39,-22,23,7
1763470508.8714967,4,12,4,63,18,-17,-11,114
1763470508.8947358,2,-6,6,51,31,40,-2,-19
1763470508.909156,1,-13,-20,-7,-10,-2,36,0
1763470508.9315188,-23,-11,-19,53,7,-10,-34,-72
1763470508.9548128,4,16,5,-25,5,50,115,23
1763470508.9772778,-14,4,1,-39,-9,-61,-37,2
1763470508.9916244,19,-6,3,-35,-9,13,-26,-8
1763470509.0139658,5,-17,-59,-16,17,8,-18,56
1763470509.028277,17,20,33,-1,-34,-6,5,-50
1763470509.0439913,2,-1,0,11,-9,-28,8,-28
1763470509.0515127,-14,-9,-27,-31,19,-12,-35,-49
1763470509.073857,-3,-6,10,36,29,10,-10,1
1763470509.089882,-4,4,1,-2,13,-3,9,15
1763470509.0968862,5,9,14,12,27,14,20,-7
1763470509.1115787,4,-6,-10,3,-35,8,36,21
1763470509.1340106,-11,-7,8,-12,14,35,-7,-17
1763470509.1483748,-5,2,-2,8,-22,-3,1,5
1763470509.156537,-3,6,12,31,28,3,5,-17
1763470509.1873405,1,-3,-6,-30,-32,-31,-8,-10
1763470509.1941023,-6,-2,10,14,-4,-18,11,-11
1763470509.208397,6,-10,-8,4,12,-10,-5,27
1763470509.2239487,-8,-21,-33,27,17,16,40,-31
1763470509.2314367,-2,2,2,-17,28,37,-4,-2
1763470509.2538576,-10,1,-3,-7,-31,7,44,42
1763470509.26829,2,9,18,1,-12,-43,-41,-50
1763470509.2764301,-9,-14,-55,0,23,-52,-1,-46
1763470509.291399,8,-1,-8,-13,40,1,51,-24
1763470509.3143573,1,-8,-6,-37,-16,40,-40,-11
1763470509.337269,-4,4,-7,-17,0,-30,-17,-18
1763470509.3513916,25,7,0,14,-12,3,5,23
1763470509.3738785,-5,-2,5,16,2,44,26,-3
1763470509.397128,7,7,13,-6,13,-14,-5,15
1763470509.4113257,6,8,-16,-17,0,-30,0,-30
1763470509.433959,-15,-14,1,9,26,11,-4,15
1763470509.457113,-10,1,13,-1,12,-2,5,-13
1763470509.4714427,15,15,21,2,25,-10,-5,53
1763470509.4940114,-4,-7,18,24,-10,18,-58,-9
1763470509.5172665,-2,-11,-9,19,-55,32,11,12
1763470509.5314193,-3,-2,-3,44,-6,23,-16,14
1763470509.5538976,-9,-18,5,-14,-52,-55,-11,-30
1763470509.5773082,-10,10,-3,-5,-15,3,29,11
1763470509.5914392,5,-1,-13,-8,-2,-37,-14,-20
1763470509.6138809,2,-17,-22,-36,-15,7,6,-28
1763470509.6373284,24,40,3,25,31,2,45,7
1763470509.6515105,-11,-17,-21,32,39,39,-6,8
1763470509.6740825,-5,3,5,-6,-29,-23,-4,53
1763470509.6971166,-40,-17,-9,22,33,-7,-20,-3
1763470509.711442,-30,-17,-14,3,-6,-28,8,-13
1763470509.7341065,19,-16,3,-5,-42,-8,-15,-9
1763470509.7574496,-4,-4,-9,6,11,-9,-21,-10
1763470509.7713535,-12,-1,-5,-23,41,7,23,-20
1763470509.793895,15,23,-5,-27,-10,3,18,21
1763470509.8171122,42,15,9,-25,-11,2,-7,-3
1763470509.8313487,9,3,12,1,-5,-2,-4,-4
1763470509.8539128,0,-24,-21,23,1,-6,-6,-3
1763470509.8770683,-12,3,13,-1,-1,4,0,-2
1763470509.8921716,-8,5,-2,-1,0,-2,-6,0
1763470509.8990035,-4,-13,-6,-13,-2,1,-1,-2
1763470509.9139557,0,-12,-2,2,0,1,3,0
1763470509.9373796,-8,5,4,17,17,0,-3,1
1763470509.9509027,8,10,16,-4,-8,1,0,3
1763470509.9664128,-14,-34,-29,-9,-1,-1,-6,-6
1763470509.974049,-4,-6,-1,0,1,-2,-1,-2
1763470509.9970665,5,10,3,17,22,2,-3,1
1763470510.011073,3,-3,-18,-22,-17,-3,-1,-2
1763470510.01895,-16,1,-9,0,-1,-1,-1,0
1763470510.0340836,-23,1,14,-9,-10,-2,1,-4
1763470510.05711,-21,-2,4,7,1,2,23,-1
1763470510.0709338,12,-7,-6,-5,-3,1,-8,-1
1763470510.0790102,-5,1,-1,-8,-16,-1,-1,-1
1763470510.0940032,-6,2,-3,0,0,0,-6,-1
1763470510.1170914,2,-1,-3,-2,0,-2,-4,0
1763470510.1308944,-1,-2,-3,-2,-3,-3,-3,-1
1763470510.1388872,-6,5,2,-1,-3,-2,-2,-1
1763470510.1539216,-4,-5,-1,3,-2,-2,-4,-1
1763470510.1771164,8,-3,1,-8,-9,0,-2,1
1763470510.1910102,-5,-3,-2,0,-1,-2,-4,-2
1763470510.198925,-1,-2,2,-3,-3,-3,-1,-1
1763470510.21422,4,0,-3,-8,0,-1,0,1
1763470510.2445836,-6,-3,-3,3,3,0,0,-1
1763470510.2507598,11,3,0,-1,1,2,0,1
1763470510.2588866,-9,2,-1,-3,-6,-1,-5,-1
1763470510.273879,-4,-1,1,-4,-11,-4,-5,-3
1763470510.296487,0,3,3,2,0,-4,-4,-2
1763470510.3202798,5,2,7,8,4,1,2,-1
1763470510.333911,-5,-3,-12,-5,-2,-3,-3,-1
1763470510.3566515,18,4,0,0,-1,0,2,1
1763470510.3797493,-4,-3,-1,-3,-5,0,1,0
1763470510.3938131,-7,-3,-4,-4,0,-1,-3,0
1763470510.4246924,-5,-2,-3,-2,-2,1,-1,-1
1763470510.4395735,0,-1,1,3,0,-1,0,0
1763470510.4540691,-3,-3,1,-1,-3,-1,-2,0
1763470510.4765108,-1,-2,-1,0,1,-2,-1,-2
1763470510.4996307,-5,-2,-2,-3,0,-1,-2,0
1763470510.5221202,-2,-1,0,-2,-2,-2,-1,-1
1763470510.5363762,-1,0,-2,-1,2,-3,-2,0
1763470510.5670917,-1,-3,-2,-2,-4,-1,-2,-1
1763470510.5740457,0,-1,-2,-5,-3,-1,0,-2
1763470510.5970957,0,0,-2,1,1,-1,-3,-2
1763470510.6197069,-2,-2,-1,0,1,0,1,-1
1763470510.6340046,-1,-1,-2,0,-1,1,-2,-2
1763470510.6576486,-4,-3,-2,-5,-2,-2,0,-1
1763470510.6797726,0,-1,0,1,-4,-1,-3,-2
1763470510.694016,-2,-1,-3,0,5,3,1,-1
1763470510.7166507,0,0,-2,-1,-4,-4,-3,1
1763470510.7398038,-1,-2,-2,-2,-2,0,-1,-1
1763470510.753905,0,0,2,2,1,1,-1,1
1763470510.7766428,-1,0,0,1,0,-2,-2,-1
1763470510.7997808,-2,-2,0,0,-3,-2,1,0
1763470510.8139265,2,0,-1,-1,-1,-3,-1,-2
1763470510.836584,0,-1,-1,0,2,1,0,-1
1763470510.8441398,0,-2,-2,0,0,-2,-3,-1
1763470510.8597026,-1,-1,3,0,0,-3,-1,-1
1763470510.873585,-2,-2,-3,-1,-3,-3,0,0
1763470510.8818786,-1,0,-1,0,0,1,0,-1
1763470510.8965757,2,1,-1,0,0,2,4,30
1763470510.9198282,-2,-2,1,-2,-2,-2,-4,-33
1763470510.9334502,-3,-3,-4,-1,-2,-2,0,-8
1763470510.9416077,0,0,-1,-1,1,-2,-2,0
1763470510.9565487,-1,0,1,2,3,-1,-2,1
1763470510.9873047,-1,-1,-2,-1,-3,0,0,4
1763470510.9933672,0,1,1,0,-1,-1,-1,0
1763470511.001603,0,-2,-1,0,-1,-1,0,0
1763470511.0161438,-2,-1,-2,1,0,-1,-1,-2
1763470511.0242884,0,0,1,0,-1,-1,-2,2
1763470511.0396302,-1,-2,-2,-2,-1,0,-2,-4
1763470511.0532413,-2,-2,-1,-4,-2,-2,-2,0
1763470511.06145,-2,-2,-1,-3,-2,0,-2,-1
1763470511.0764678,-1,-2,-2,-3,-4,2,-2,1
1763470511.0996485,0,-1,-1,-1,-1,-3,-1,1
1763470511.113333,1,-1,-1,0,3,0,0,0
1763470511.121402,-1,0,-3,-1,-1,-2,0,-1
1763470511.1365683,-1,1,-1,-1,-2,-1,1,-1
1763470511.1597192,0,0,0,0,1,4,-2,0
1763470511.1733346,0,1,-1,0,0,-3,0,-1
1763470511.181595,0,-3,-2,0,0,0,0,-2
1763470511.196464,1,2,3,1,2,-1,1,-1
1763470511.219761,-2,-4,-9,-5,-2,-2,-2,-1
1763470511.2422683,-2,-1,1,0,-2,-1,-2,-1
1763470511.2567525,-1,-1,-1,-3,-1,-1,-1,-1
1763470511.279819,-1,-3,-3,0,-2,0,-2,-1
1763470511.301977,-3,-2,-4,-1,0,1,0,0
1763470511.3163862,-2,1,1,-1,-3,-1,-1,-3
1763470511.3399065,-1,-2,-2,-1,-2,-2,-2,-1
1763470511.3623447,0,-2,-1,1,0,0,-1,0
1763470511.3764596,0,-2,0,-2,-2,-1,-3,-2
1763470511.400255,-1,0,0,-3,3,0,1,-2
1763470511.4225547,-1,-1,0,-1,0,0,-1,0
1763470511.4448538,-1,-1,-3,-1,-2,-1,-1,-1
1763470511.4600542,-1,0,-1,-2,-3,-2,-1,-1
1763470511.4823341,-1,-1,-3,-1,-2,-2,-2,-1
1763470511.496727,-1,-1,0,-2,-1,-2,-1,0
1763470511.520178,0,0,0,-1,-1,-5,0,-3
1763470511.5423944,-2,-3,1,-2,-1,-1,-1,-1
1763470511.5566711,0,-2,1,-1,-1,-1,-1,-3
1763470511.5787525,1,0,0,0,-2,1,1,1
1763470511.586493,-1,0,-1,-2,0,-1,1,-2
1763470511.6022336,0,0,-2,-2,-2,-1,-1,-1
1763470511.6165662,-2,-1,-2,0,-2,-1,-1,-2
1763470511.6396973,-1,-2,-2,2,3,2,-2,0
1763470511.6621215,-1,-2,0,-2,-2,-1,-1,0
1763470511.6765754,0,1,1,0,0,-2,-4,-2
1763470511.6997087,-1,-2,-3,-3,-3,0,-1,-3
1763470511.7222064,-2,-2,-1,0,-1,-1,0,0
1763470511.7366347,0,1,-1,0,0,0,-1,-1
1763470511.7597125,-2,-2,-3,-2,0,-2,-3,-1
1763470511.782344,0,0,0,0,-1,-1,0,0
1763470511.79648,-2,0,-1,-2,0,-1,0,1
1763470511.8198354,-3,-2,-7,-1,-1,0,0,0
1763470511.842215,-2,-2,0,0,-1,1,0,-2
1763470511.8562043,0,-3,-1,0,0,-1,-2,0
1763470511.86415,-2,-1,1,-1,0,1,0,0
1763470511.8797061,-2,-1,1,-1,-1,-2,-3,0
1763470511.9025972,-1,-2,0,-1,-2,0,1,-1
1763470511.9160852,0,-2,-1,-2,-2,-1,-1,-2
1763470511.9244072,-2,0,-1,-1,0,-2,-1,-2
1763470511.9398887,1,1,-1,-1,-2,0,0,-1
1763470511.9624708,0,1,0,1,2,-1,-2,-2
1763470511.97662,-1,1,-1,-1,0,-2,-1,0
1763470511.9841683,1,-2,-2,0,0,0,-2,0
1763470512.0010505,-1,-2,-4,-1,-1,-3,-2,-2
1763470512.0234675,0,-1,0,-2,0,-1,-2,1
1763470512.0359392,0,1,2,1,1,0,0,-1
1763470512.0445843,-1,0,-1,0,-1,0,0,-1
1763470512.0597477,-1,-1,0,-1,-4,-1,-1,-1
1763470512.0821514,-1,-1,-1,-3,-1,1,-1,-1
1763470512.0959218,-1,-1,0,-1,0,1,0,-1
1763470512.1040566,0,-2,-2,-2,1,-2,1,-3
1763470512.1202998,-3,-2,-4,-2,-2,-2,-1,-2
1763470512.142314,-1,-1,-2,-3,-2,-1,-1,-1
1763470512.1559806,1,-2,-1,0,-1,-1,-1,1
1763470512.1639936,-1,-3,-1,0,0,-1,-1,0
1763470512.1787214,-1,0,-1,0,-2,-2,-1,-1
1763470512.1865263,-2,1,-1,-1,0,-2,-2,0
1763470512.202471,-2,0,0,2,1,-2,-2,-1
1763470512.2321875,-1,1,0,-2,-3,-1,-2,-1
1763470512.2396314,0,-2,-2,-2,1,1,0,-1
1763470512.2621493,-1,0,-1,0,-2,-1,-1,-2
1763470512.2847388,-1,-3,-2,0,2,0,0,-1
1763470512.298347,-1,-2,-2,-1,-1,-2,-2,-2
1763470512.3073559,-2,-2,-1,-1,0,0,-1,-1
1763470512.3220758,-1,0,1,-2,-1,0,0,-1
1763470512.344771,0,-1,-1,-2,-2,-1,-1,-2
1763470512.3584857,-1,-1,-3,-1,-1,-2,-1,-1
1763470512.3748727,-1,-2,-2,0,-1,-1,0,-3
1763470512.3822803,0,-1,0,-2,-2,-1,-2,-2
1763470512.4049718,-2,0,-1,-2,-4,0,-1,0
1763470512.4185143,-3,-1,-2,1,1,2,-1,0
1763470512.427363,-3,0,-1,-2,-1,-1,-2,0
1763470512.4423795,0,-1,0,-1,0,-2,0,0
1763470512.4651387,0,-2,-1,0,-1,1,1,0
1763470512.4784822,0,-1,1,0,-1,-2,0,-1
1763470512.4874542,-2,-1,-2,0,-2,-2,-1,0
1763470512.501451,-1,-1,0,-2,-1,-1,-2,-1
1763470512.5098166,0,0,-1,0,-1,-1,-2,0
1763470512.524835,0,1,0,-1,-2,-1,0,0
1763470512.5385528,-1,-2,-1,-1,-3,-2,-2,0
1763470512.5474806,0,0,1,-2,-1,-1,-1,-2
1763470512.5623765,-1,0,-1,0,0,0,-1,-1
1763470512.5849457,-1,-1,0,1,0,-2,0,-2
1763470512.5984309,0,-2,-1,-1,0,0,0,-1
1763470512.6075606,-2,-1,-2,-2,-1,0,-1,-2
1763470512.6222303,-1,-1,-1,-1,-2,0,-2,0
1763470512.6447535,0,1,1,-1,-4,-2,-1,-1
1763470512.6584115,-2,-2,-3,-2,-1,-2,-2,0
1763470512.6674616,0,-2,0,1,0,0,-1,0
1763470512.6821914,-2,-3,-2,-2,0,0,-1,-2
1763470512.704981,1,-1,0,-1,-1,-1,0,-1
1763470512.7186499,-1,-2,-1,-1,-1,-1,-2,0
1763470512.727461,0,-1,-3,-2,-2,-2,-2,-1
1763470512.7422423,-3,0,-1,-1,1,-1,0,0
1763470512.7646146,0,1,-2,-2,-2,-3,-1,0
1763470512.7872255,-2,-2,1,0,-1,1,-1,-2
1763470512.8024597,0,0,-2,0,0,0,-2,-2
1763470512.8246894,1,-2,-2,2,0,0,-1,-1
1763470512.8383033,0,0,-2,-1,0,0,0,-2
1763470512.8472786,1,-1,-2,-1,-2,0,-1,-1
1763470512.86215,-2,-1,-1,-3,-3,-1,-2,-1
1763470512.884744,0,-1,-3,0,-1,0,0,-1
1763470512.898318,-2,-1,-1,-2,-2,-2,-1,0
1763470512.9074285,0,1,-2,1,1,1,-1,-2
1763470512.9222362,-1,1,2,-1,0,0,0,0
1763470512.944688,-3,0,-2,-1,-3,0,-1,0
1763470512.9584396,-2,-1,0,-2,0,-1,1,-2
1763470512.9748495,0,-1,-1,0,-1,-2,1,0
1763470512.9821303,0,-2,-3,2,-2,0,-1,0
1763470513.0047255,0,0,1,-3,-3,-2,-1,-3
1763470513.0187612,-1,-1,-1,-1,0,-3,-1,0
1763470513.027347,0,-1,-2,-1,-1,1,-1,-2
1763470513.0421915,0,-1,-3,-2,0,1,0,-2
