Timestamp,CH_1,CH_2,CH_3,CH_4,CH_5,CH_6,CH_7,CH_8
1762970687.7115757,34,135,182,116,416,141,52,24
1762970687.7340987,36,134,205,119,380,135,44,23
1762970687.779723,42,164,301,165,400,107,33,25
1762970687.8090506,41,159,300,172,414,108,34,27
1762970687.831622,38,164,308,176,408,101,30,25
1762970687.8622267,35,138,196,157,417,85,29,23
1762970687.8915472,36,130,194,148,421,109,36,24
1762970687.9140475,46,152,264,176,427,109,36,26
1762970687.9515505,57,195,352,214,474,116,40,34
1762970687.9740696,65,218,363,219,460,109,41,38
1762970688.011533,61,192,328,173,513,123,45,37
1762970688.034033,57,196,292,155,484,123,46,36
1762970688.071555,40,168,253,145,504,110,42,31
1762970688.0941179,33,172,256,146,507,77,37,31
1762970688.1315207,33,169,235,140,432,65,38,29
1762970688.1540241,43,155,219,123,425,65,41,31
1762970688.1767995,43,154,245,134,462,65,43,30
1762970688.2140882,55,167,238,162,492,66,41,33
1762970688.2515252,51,177,263,159,512,71,37,32
1762970688.2740347,51,172,260,146,459,67,35,31
1762970688.3116298,44,204,284,122,431,60,33,24
1762970688.334045,45,230,278,111,366,55,34,24
1762970688.3715343,43,226,232,107,441,53,40,29
1762970688.394198,44,238,260,113,430,54,43,34
1762970688.4314952,46,216,266,189,449,52,48,38
1762970688.4540634,41,191,261,189,389,54,42,34
1762970688.49151,60,141,237,198,460,54,37,27
1762970688.5140133,84,217,260,148,445,55,38,28
1762970688.551514,90,211,258,150,491,57,38,30
1762970688.5740411,87,217,274,165,500,61,39,29
1762970688.5965347,79,222,242,169,522,65,33,30
1762970688.6340294,46,147,197,197,626,67,33,28
1762970688.6565695,47,150,176,203,654,81,33,27
1762970688.6940663,39,114,144,216,687,121,38,26
1762970688.7165577,44,130,169,195,613,122,41,31
1762970688.7540543,39,109,163,186,597,116,40,28
1762970688.7766285,39,106,158,151,498,72,37,28
1762970688.8139908,30,58,95,131,543,63,36,18
1762970688.8365493,30,58,80,123,476,51,31,18
1762970688.8740315,29,47,58,110,443,61,33,22
1762970688.8965507,30,43,51,111,346,74,34,23
1762970688.934058,30,36,54,108,346,81,35,22
1762970688.9565532,28,37,57,114,378,110,34,21
1762970688.9940734,25,38,60,110,380,103,33,18
1762970689.0164993,25,39,65,111,384,101,28,19
1762970689.0540648,26,41,65,155,340,84,27,23
1762970689.076561,25,35,62,152,332,76,26,23
1762970689.11553,24,34,58,161,360,78,25,25
1762970689.1365511,24,37,61,133,331,63,28,23
1762970689.1740727,26,36,54,133,410,69,31,22
1762970689.1965752,26,33,44,116,408,67,32,23
1762970689.2340176,24,30,40,136,496,64,28,22
1762970689.2565258,25,32,46,145,532,74,29,22
1762970689.2940078,22,30,47,143,480,67,27,20
1762970689.3164713,22,29,46,136,489,65,26,19
1762970689.3540237,22,28,43,115,434,47,37,19
1762970689.3767729,22,28,40,99,401,38,38,20
1762970689.414642,21,30,39,89,366,38,38,21
1762970689.4365604,21,30,38,86,323,42,39,23
1762970689.4740667,19,29,38,108,406,53,39,22
1762970689.496555,23,31,42,123,444,52,41,23
1762970689.5340414,24,27,38,116,409,51,42,22
1762970689.556525,28,29,42,113,406,41,43,25
1762970689.579079,28,28,39,111,412,45,41,25
1762970689.616521,25,26,35,86,364,44,37,25
1762970689.6389754,25,26,35,97,450,49,37,25
1762970689.6765149,22,25,35,79,424,51,31,22
1762970689.6989765,21,24,34,84,439,58,48,26
1762970689.7365398,22,25,35,78,386,52,54,27
1762970689.7590582,20,26,34,76,364,53,52,28
1762970689.7965508,21,27,31,83,389,71,47,27
1762970689.8190465,20,26,30,71,325,70,45,25
1762970689.8565254,23,24,28,80,410,120,79,41
1762970689.8790464,25,25,27,77,359,162,90,46
1762970689.9164734,26,25,29,85,409,254,93,48
1762970689.939036,27,28,28,89,434,250,91,41
1762970689.9764614,26,26,29,85,439,241,92,46
1762970689.9990237,28,27,28,89,525,213,95,50
1762970690.0365248,23,25,32,70,514,165,84,48
1762970690.0589895,23,27,37,87,561,186,88,49
1762970690.096513,23,32,38,87,469,148,60,33
1762970690.127284,24,37,48,94,399,143,60,33
1762970690.1564767,26,54,70,84,354,129,49,31
1762970690.179011,26,54,76,99,370,122,70,43
1762970690.2165139,30,85,113,112,481,117,78,44
1762970690.2390237,30,88,106,117,494,115,80,45
1762970690.2766185,34,141,131,124,500,68,53,31
1762970690.298998,36,170,230,126,492,65,60,34
1762970690.3366082,41,230,250,139,263,71,69,38
1762970690.359072,44,231,267,136,225,67,70,41
1762970690.3965251,46,241,289,143,343,75,75,50
1762970690.427244,42,218,290,118,377,79,69,52
1762970690.4564443,58,261,334,161,450,77,67,53
1762970690.479067,73,293,339,205,565,84,63,51
1762970690.5015554,93,312,421,291,557,85,55,50
1762970690.5390267,105,344,430,318,548,89,47,46
1762970690.5622237,97,313,421,307,573,92,46,45
1762970690.5990236,61,228,293,191,448,106,65,44
1762970690.6221719,47,200,245,171,541,119,68,42
1762970690.6590455,47,192,217,170,578,142,72,40
1762970690.681528,52,207,203,180,600,154,72,40
1762970690.7190287,61,209,242,190,489,139,50,32
1762970690.7415092,62,201,255,189,452,151,49,33
1762970690.7790344,67,278,278,152,401,149,62,42
1762970690.8014982,62,270,244,128,371,152,69,49
1762970690.8390224,65,251,199,102,490,141,70,50
1762970690.8615568,58,212,176,111,479,126,60,46
1762970690.8990571,62,187,193,143,560,152,55,29
1762970690.929818,62,180,216,143,474,144,50,28
1762970690.9589863,65,205,217,133,661,132,46,25
1762970690.981494,62,203,208,131,618,114,45,29
1762970691.0190303,71,227,140,117,671,115,41,29
1762970691.0414913,76,213,147,240,607,111,42,30
1762970691.0872204,76,207,150,246,587,116,45,27
1762970691.1165211,70,165,162,270,679,121,47,28
1762970691.1390245,61,146,143,177,663,128,47,29
1762970691.1629953,63,134,137,170,654,121,45,29
1762970691.2071912,64,118,142,158,672,105,33,28
1762970691.2365172,51,81,146,134,588,85,31,29
1762970691.2589853,40,77,141,165,693,94,31,28
1762970691.2814646,33,58,130,185,567,101,38,27
1762970691.318987,33,51,90,170,689,99,37,26
1762970691.3415031,30,44,88,174,775,98,38,27
1762970691.3789995,26,36,76,110,693,85,35,28
1762970691.4014947,25,35,74,110,626,78,35,27
1762970691.4247115,24,33,70,105,585,74,35,26
1762970691.4697075,24,30,76,141,540,75,35,25
1762970691.4989817,24,27,63,156,838,108,34,26
1762970691.5215282,26,28,60,159,842,109,36,29
1762970691.5447633,24,29,59,145,841,108,33,29
1762970691.5815527,25,30,49,147,691,97,33,28
1762970691.6046603,26,31,47,172,700,123,37,28
1762970691.6415577,22,27,46,175,692,144,40,22
1762970691.664417,26,27,47,181,715,174,41,21
1762970691.7015185,26,32,70,133,578,151,36,22
1762970691.7246678,25,31,70,144,606,145,32,24
1762970691.7614994,26,35,69,143,667,195,45,29
1762970691.7846687,26,31,54,145,637,204,46,28
1762970691.8214834,27,32,50,140,494,228,48,27
1762970691.844671,27,31,50,169,542,188,45,24
1762970691.8814929,27,30,47,157,500,199,42,22
1762970691.9046876,27,32,46,178,516,194,40,22
1762970691.949675,25,32,49,193,564,198,39,24
1762970691.9790137,28,32,63,253,583,252,41,26
1762970692.001606,31,34,63,240,563,255,42,27
1762970692.024667,31,34,59,230,573,265,44,29
1762970692.0614965,37,39,58,235,500,299,52,34
1762970692.084686,36,40,49,225,620,287,57,35
1762970692.1214964,36,40,49,257,687,306,57,35
1762970692.1446443,34,36,48,260,718,311,59,34
1762970692.1896827,37,39,50,227,719,457,90,69
1762970692.2189908,42,38,50,167,631,459,143,143
1762970692.2415137,44,40,51,169,700,470,192,153
1762970692.2646704,42,35,48,170,660,418,192,155
1762970692.301482,39,30,42,181,685,251,171,119
1762970692.3246555,32,30,42,174,689,249,151,72
1762970692.3696935,47,56,55,115,476,192,74,42
1762970692.407159,50,69,65,79,388,155,70,35
1762970692.4440863,110,120,91,78,388,241,95,49
1762970692.4672117,146,302,93,77,341,239,102,54
1762970692.503997,158,334,99,200,505,290,107,53
1762970692.5271904,161,342,93,219,566,271,107,57
1762970692.5639849,141,288,106,231,645,326,55,35
1762970692.5871391,151,276,116,244,640,327,52,34
1762970692.624051,146,271,133,198,475,310,49,29
1762970692.6471722,125,250,126,269,603,316,50,32
1762970692.6839979,95,145,126,260,574,244,54,33
1762970692.7072053,94,138,128,247,608,218,49,31
1762970692.7439978,113,132,104,153,448,171,50,30
1762970692.7672148,137,124,110,166,396,182,51,32
1762970692.8040035,144,121,130,228,427,163,45,37
1762970692.8272586,143,121,132,218,429,136,41,36
1762970692.8639984,110,102,133,250,504,125,38,36
1762970692.8871984,94,88,111,199,440,101,37,32
1762970692.9239886,79,115,128,218,383,94,38,30
1762970692.9471743,72,119,145,187,307,86,36,28
1762970692.9840345,54,108,163,199,399,82,33,25
1762970693.0071425,64,108,159,205,410,73,30,25
1762970693.044063,78,109,150,203,577,71,28,23
1762970693.06715,81,108,144,193,528,61,27,24
1762970693.1039937,88,85,106,187,532,54,27,22
1762970693.1272204,82,55,91,194,449,62,29,24
1762970693.1640043,83,53,93,189,592,78,37,23
1762970693.1872058,94,61,94,170,591,76,49,25
1762970693.210008,106,67,105,169,554,73,75,35
1762970693.2471383,140,74,106,168,446,49,74,37
1762970693.2840004,137,96,105,162,407,44,68,38
1762970693.3071399,122,93,99,149,451,44,41,29
1762970693.3296626,90,89,97,161,467,45,42,28
1762970693.3671615,65,85,95,196,506,67,39,28
1762970693.3896446,57,63,99,187,518,77,35,24
1762970693.4121966,50,63,109,192,561,101,40,26
1762970693.4496644,47,63,138,235,587,175,43,27
1762970693.4871974,43,68,164,241,516,187,45,32
1762970693.5171735,44,68,158,234,476,185,45,31
1762970693.5471897,40,66,163,218,573,183,43,30
1762970693.5696716,38,65,159,255,563,228,48,32
1762970693.607137,30,50,140,268,725,253,60,32
1762970693.6296208,33,50,132,251,785,241,59,31
1762970693.667129,28,34,88,171,816,226,69,35
1762970693.6896913,31,31,79,129,845,208,69,37
1762970693.7121496,38,38,98,143,764,220,61,38
1762970693.7496603,39,47,121,196,819,235,64,38
1762970693.7946475,42,54,139,225,771,225,74,36
1762970693.8240194,38,50,112,199,667,192,81,37
1762970693.8471527,41,47,93,207,669,188,87,41
1762970693.8696833,39,46,71,195,644,188,80,41
1762970693.907153,36,39,66,193,698,170,77,38
1762970693.9296856,34,38,63,192,649,150,87,38
1762970693.9671426,30,49,60,176,744,207,140,34
1762970693.9896822,38,49,55,170,703,208,142,43
1762970694.027391,51,63,61,187,757,247,136,47
1762970694.0496373,57,70,61,151,653,230,90,50
1762970694.087134,53,66,61,162,653,255,83,43
1762970694.1099591,53,63,61,154,585,275,81,40
1762970694.146469,51,41,50,170,620,230,75,36
1762970694.169702,53,47,48,149,658,218,90,35
1762970694.2064345,60,43,39,134,614,209,96,43
1762970694.229709,66,43,42,134,648,214,91,43
1762970694.2664814,62,37,62,111,509,194,75,44
1762970694.2896867,55,43,64,108,495,167,83,42
1762970694.3121405,64,42,63,95,454,147,84,40
1762970694.3496177,63,41,54,93,368,154,109,42
1762970694.3721557,62,41,40,91,307,188,109,38
1762970694.4171207,54,37,33,94,286,205,122,40
1762970694.4464996,33,31,40,90,217,222,98,34
1762970694.469627,33,29,52,113,330,187,90,34
1762970694.4921536,41,41,72,166,546,178,88,35
1762970694.5294592,41,50,90,224,688,182,61,39
1762970694.5521886,45,61,92,233,719,177,60,38
1762970694.5896437,51,59,89,216,680,173,60,38
1762970694.6121178,51,57,79,185,638,169,57,36
1762970694.6496046,52,52,85,208,569,131,54,34
1762970694.6721418,41,51,91,213,528,162,45,30
1762970694.7099385,50,56,77,187,397,176,50,31
1762970694.73212,52,55,79,172,398,179,53,30
1762970694.7696128,50,57,61,158,426,181,48,29
1762970694.7921438,55,51,60,157,445,143,48,30
1762970694.829639,54,43,61,168,468,178,41,28
1762970694.852111,52,36,49,135,421,166,40,30
1762970694.8896518,33,30,53,140,445,142,25,25
1762970694.912151,30,33,54,148,403,121,24,25
1762970694.949639,25,34,55,145,395,103,25,22
1762970694.9721189,25,32,45,143,339,112,28,22
1762970695.0098908,31,35,48,125,330,87,36,25
1762970695.032143,33,35,48,114,362,97,38,24
1762970695.0696774,31,32,41,104,456,122,38,24
1762970695.0921102,30,30,37,97,463,150,39,24
1762970695.12963,25,24,33,111,459,176,37,21
1762970695.152175,25,24,31,141,563,193,42,23
1762970695.189343,20,25,31,145,543,191,41,23
1762970695.2196293,21,24,32,146,546,191,41,24
1762970695.2496226,23,26,33,104,412,180,33,24
1762970695.272174,25,26,34,94,373,173,32,25
1762970695.2946742,30,27,34,87,431,233,47,32
1762970695.3321147,31,27,34,84,452,267,56,31
1762970695.354645,30,28,36,88,438,268,56,33
1762970695.392136,25,26,30,87,379,211,55,27
1762970695.4146318,25,26,33,111,449,188,49,27
1762970695.4521205,23,25,29,128,656,194,90,44
1762970695.4746392,22,21,28,125,647,182,91,46
1762970695.4971406,21,22,31,131,657,180,90,47
1762970695.5346048,22,25,31,115,556,147,93,50
1762970695.572137,22,25,35,110,558,224,53,32
1762970695.5946481,27,27,36,105,560,228,50,31
1762970695.6171253,29,39,41,88,437,227,46,29
1762970695.6546445,36,76,67,97,516,193,41,29
1762970695.6921349,41,95,109,113,482,156,32,25
1762970695.7146256,46,106,130,119,464,154,31,27
1762970695.7520943,41,88,155,118,258,147,31,28
1762970695.77465,42,86,158,134,236,148,33,29
1762970695.812144,37,75,154,137,249,147,33,26
1762970695.8346303,36,86,149,147,316,145,33,23
1762970695.8571405,46,125,176,152,342,136,34,26
1762970695.894647,46,154,212,170,369,152,28,23
1762970695.932119,58,169,223,179,365,169,33,27
1762970695.9545975,52,152,212,182,394,158,31,25
1762970695.9921348,53,141,229,246,380,129,33,29
1762970696.0146194,43,113,230,275,379,129,33,28
1762970696.0370889,50,132,262,278,383,106,32,28
1762970696.0746362,54,151,306,269,338,98,31,30
1762970696.1121194,60,214,318,204,414,127,31,30
1762970696.1346207,53,205,295,201,429,125,31,30
1762970696.157145,52,205,295,245,452,127,32,29
1762970696.1946235,43,130,188,250,500,118,28,26
1762970696.2170908,47,127,190,261,505,104,31,26
1762970696.2546368,50,150,213,230,509,150,35,29
1762970696.2772183,48,138,212,211,499,151,34,28
1762970696.3146186,39,128,209,212,471,150,32,27
1762970696.3372421,35,109,203,249,552,117,25,26
1762970696.3746471,39,105,206,295,619,106,27,25
1762970696.3971155,45,120,199,303,592,98,27,26
1762970696.4345875,44,118,180,251,506,85,33,27
1762970696.4728048,48,118,188,229,468,134,42,29
1762970696.4946318,48,127,182,215,482,142,44,30
1762970696.5171077,50,125,188,247,471,177,48,30
1762970696.5546384,46,126,162,222,418,152,35,26
1762970696.5772066,47,136,172,231,456,158,36,25
1762970696.6146185,45,107,150,192,473,118,33,28
1762970696.6370885,46,108,142,190,480,114,31,29
1762970696.6746435,40,60,94,138,435,85,39,31
1762970696.6971345,34,57,83,112,395,81,50,29
1762970696.734618,33,58,71,89,401,90,58,30
1762970696.757152,32,52,62,98,402,104,58,29
1762970696.7945898,32,45,47,106,435,112,56,32
1762970696.8171217,26,31,33,105,427,115,61,33
1762970696.854613,29,33,36,91,396,117,58,33
1762970696.8772128,27,33,44,82,375,106,65,33
1762970696.9145927,31,30,46,86,308,99,48,29
1762970696.9372797,30,29,52,88,321,80,49,29
1762970696.9745736,31,33,61,91,345,72,35,26
1762970696.9971616,30,34,60,95,361,75,37,25
1762970697.0345922,33,38,67,113,440,86,35,24
1762970697.0571256,29,30,61,126,426,88,31,25
1762970697.094641,34,31,70,133,398,119,33,27
1762970697.1171455,33,32,70,125,437,123,42,27
1762970697.1396515,31,31,68,153,371,133,42,26
1762970697.1621218,33,32,74,165,419,134,44,25
1762970697.199601,36,40,71,218,536,131,41,25
1762970697.2378259,38,43,71,229,676,125,52,33
1762970697.25989,37,46,72,231,715,125,53,34
1762970697.2971354,33,47,84,189,728,112,54,32
1762970697.3196008,32,46,86,191,684,123,78,29
1762970697.357065,33,45,88,160,600,120,84,35
1762970697.379671,33,44,73,146,556,145,97,42
1762970697.4171119,34,37,66,129,504,134,91,50
1762970697.4395845,28,32,46,128,468,139,88,47
1762970697.477083,29,34,46,135,480,159,77,41
1762970697.499614,28,31,41,117,441,162,67,30
1762970697.537589,26,30,44,84,327,164,49,26
1762970697.5598755,26,32,46,94,418,128,43,27
1762970697.597165,28,46,92,149,629,131,73,44
1762970697.6196234,30,49,102,171,731,179,78,44
1762970697.6571233,31,51,108,180,727,193,109,53
1762970697.6796072,31,44,92,166,676,191,109,53
1762970697.717094,28,36,58,119,456,157,94,44
1762970697.739656,27,35,55,118,457,140,59,37
1762970697.7772257,26,33,46,99,396,135,63,39
1762970697.8152866,29,34,43,110,413,143,59,41
1762970697.8371217,28,33,35,93,355,167,63,36
1762970697.8595946,28,33,38,105,395,191,73,41
1762970697.8970883,32,32,36,95,496,258,83,45
1762970697.919587,35,32,43,90,480,258,154,110
1762970697.957124,40,48,89,140,649,274,208,164
1762970697.9796083,43,68,120,151,640,229,206,164
1762970698.0245764,44,102,179,171,730,218,161,136
1762970698.0621002,41,103,202,167,702,191,76,62
1762970698.0995922,34,90,193,167,630,175,74,59
1762970698.122147,27,77,178,168,578,177,70,54
1762970698.1598818,30,108,199,206,401,157,64,48
1762970698.1820934,36,157,204,207,384,162,64,45
1762970698.2202697,51,182,237,201,286,153,56,30
1762970698.2420943,57,208,251,203,287,144,53,32
1762970698.279593,61,181,291,165,366,163,53,32
1762970698.3020627,62,182,276,186,392,153,36,31
1762970698.339581,54,175,303,219,384,163,43,30
1762970698.3620954,60,183,338,236,334,158,44,31
1762970698.3995998,57,182,320,232,247,164,42,34
1762970698.4296267,63,189,306,230,219,187,56,47
1762970698.4598508,72,183,266,174,228,170,93,54
1762970698.482214,74,182,266,147,222,170,109,60
1762970698.519615,65,172,273,151,203,120,104,49
1762970698.5420692,47,163,255,177,323,123,105,44
1762970698.5795696,48,150,264,201,394,106,58,32
1762970698.602096,49,151,228,201,412,104,69,38
1762970698.6238801,49,137,247,193,458,87,67,39
1762970698.6614597,58,171,251,145,471,80,63,44
1762970698.6838849,55,197,290,186,464,82,59,42
1762970698.722881,71,244,331,233,402,71,39,39
1762970698.7440124,70,249,367,237,393,72,42,37
1762970698.7814207,65,221,335,264,471,55,48,39
1762970698.8039105,65,233,362,289,506,60,59,42
1762970698.8413854,59,196,314,282,547,60,62,39
1762970698.8639047,61,200,317,253,408,49,61,40
1762970698.9013782,67,221,300,256,407,48,57,39
1762970698.9238796,69,218,278,242,406,61,52,38
1762970698.9478798,69,204,276,237,392,75,52,37
1762970698.9838865,51,104,160,187,349,107,38,34
1762970699.0213459,52,113,173,186,396,104,41,32
1762970699.043912,46,112,160,200,384,101,39,33
1762970699.08137,40,103,150,214,555,86,36,27
1762970699.1038685,41,88,122,210,540,101,40,32
1762970699.1414075,33,46,95,236,613,120,45,31
1762970699.1639242,31,42,78,199,504,160,48,33
1762970699.2028947,24,40,66,175,539,180,52,31
1762970699.223881,24,36,60,125,532,186,58,34
1762970699.2628791,24,32,50,139,455,157,59,31
1762970699.2853951,23,32,52,127,472,164,52,30
1762970699.322916,23,33,58,161,314,149,40,25
1762970699.343914,30,37,68,154,318,144,34,25
1762970699.3830082,36,44,91,163,317,126,33,27
1762970699.403887,41,53,103,132,344,112,35,27
1762970699.4428737,39,50,96,128,398,265,46,30
1762970699.463865,37,49,86,130,418,299,52,30
1762970699.494029,38,44,70,142,426,346,52,29
1762970699.5238576,34,38,77,180,433,324,54,30
1762970699.5463653,30,40,81,174,366,336,46,27
1762970699.5838745,24,39,81,176,393,278,43,27
1762970699.6064098,22,38,76,157,380,314,46,27
1762970699.6439652,20,32,50,134,421,275,38,25
1762970699.666392,21,31,52,110,437,303,42,23
1762970699.7038915,25,32,51,95,354,286,43,27
1762970699.7278938,25,32,55,112,413,324,44,25
1762970699.7503543,26,32,48,131,470,405,53,27
1762970699.7864254,26,33,48,144,579,386,57,28
1762970699.823887,23,30,47,146,579,385,57,29
1762970699.8463933,23,31,49,141,555,300,52,28
1762970699.8838856,25,29,41,117,479,278,44,29
1762970699.9063551,26,31,43,136,514,292,48,30
1762970699.9439356,27,32,40,132,470,300,52,33
1762970699.966357,29,35,45,155,555,334,59,32
1762970700.0038965,30,33,47,154,752,369,57,29
1762970700.0265043,34,37,51,149,744,353,74,35
1762970700.0713966,40,41,48,134,676,399,70,34
1762970700.102851,41,43,41,104,398,329,103,49
1762970700.1238341,39,42,35,97,380,316,96,46
1762970700.1463954,37,40,32,83,328,259,96,47
1762970700.1838942,36,48,29,61,353,201,96,48
1762970700.206388,36,53,42,71,367,194,59,35
1762970700.2439334,41,72,56,78,375,157,49,35
1762970700.2665079,40,68,63,85,358,128,48,32
1762970700.3038652,39,76,66,150,368,158,43,30
1762970700.3265066,35,83,79,163,370,155,38,27
1762970700.3638592,38,87,117,182,406,214,34,27
1762970700.3863573,38,97,132,182,455,194,32,28
1762970700.4238708,38,85,127,155,464,256,32,29
1762970700.4463384,38,82,129,150,483,334,47,30
1762970700.4838395,38,73,118,139,427,359,51,30
1762970700.5063176,38,95,169,130,424,356,53,30
1762970700.5438423,37,95,176,118,449,254,48,29
1762970700.5664105,37,118,182,124,467,205,44,29
1762970700.6038854,29,119,155,182,542,165,40,30
1762970700.6279473,28,123,154,197,500,157,31,27
1762970700.6653495,32,119,175,221,480,78,29,27
1762970700.6939702,33,109,161,202,459,87,28,27
1762970700.7313795,39,123,205,221,396,95,27,24
1762970700.7703576,40,116,179,223,466,96,30,24
1762970700.8063588,56,151,201,210,485,73,47,31
1762970700.8467867,62,144,186,160,506,69,51,36
1762970700.875461,65,167,217,162,439,64,56,35
1762970700.9045713,71,161,255,199,327,65,44,32
1762970700.9264836,67,159,257,208,294,60,39,26
1762970700.950345,71,174,263,208,295,64,39,27
1762970700.9863694,53,159,249,212,358,82,35,22
1762970701.0088453,53,143,228,226,391,85,36,23
1762970701.0478575,43,103,208,260,459,115,44,24
1762970701.0765064,43,82,180,270,451,111,42,24
1762970701.1220982,39,58,100,209,449,115,41,21
1762970701.161056,38,47,84,186,436,141,44,26
1762970701.190379,32,41,65,175,478,203,54,31
1762970701.2264009,28,37,67,164,533,200,54,32
1762970701.2503412,27,37,61,142,502,186,47,27
1762970701.295351,26,36,61,143,486,150,38,24
1762970701.325364,23,34,47,117,434,156,33,21
1762970701.353839,19,33,51,154,556,183,32,20
1762970701.3853471,21,33,59,153,510,178,26,19
1762970701.4063303,23,31,58,152,486,191,26,20
1762970701.430397,24,34,57,148,478,191,25,21
1762970701.466362,29,43,64,132,311,151,25,22
1762970701.4963489,29,42,64,145,418,165,24,24
1762970701.5278459,28,40,67,153,447,152,26,23
1762970701.5488427,25,34,65,141,441,148,31,24
1762970701.5863879,24,33,60,116,392,154,34,23
1762970701.6088603,25,31,54,102,369,142,34,22
1762970701.6328614,24,33,54,116,365,176,37,23
1762970701.668868,25,25,38,123,480,226,40,24
1762970701.706366,23,25,41,160,559,243,43,24
1762970701.7288718,26,29,49,178,612,253,44,22
1762970701.766341,24,32,56,194,542,243,40,23
1762970701.7963197,23,32,57,205,577,246,52,24
1762970701.826415,29,50,63,217,413,191,55,25
1762970701.8488631,29,51,58,194,408,179,53,23
1762970701.8713505,32,51,54,187,329,129,51,23
1762970701.9088528,33,52,48,170,411,118,40,27
1762970701.9313617,36,48,38,129,458,168,41,29
1762970701.9688628,51,64,47,163,531,171,45,34
1762970701.9913661,50,63,45,144,491,161,35,30
1762970702.028849,57,73,52,153,416,96,32,29
1762970702.051313,63,75,50,165,394,92,32,29
1762970702.0888367,81,82,65,121,165,66,28,28
1762970702.1113503,83,84,71,127,176,52,26,31
1762970702.1488407,76,72,70,155,282,40,26,34
1762970702.1713486,57,74,76,155,293,46,25,30
1762970702.2088528,50,68,109,170,295,131,26,26
1762970702.2314014,49,79,116,184,350,137,26,24
1762970702.2689111,52,94,143,223,413,139,25,24
1762970702.2913682,47,98,137,220,428,118,26,24
1762970702.3288853,46,100,123,221,456,97,29,24
1762970702.3513737,45,95,117,281,424,99,31,22
1762970702.388851,42,92,169,306,472,148,31,25
1762970702.4113717,39,87,170,295,478,143,30,26
1762970702.4488227,34,79,156,217,566,146,30,28
1762970702.4713027,35,78,133,252,554,172,36,31
1762970702.5088444,35,82,117,283,680,145,37,29
1762970702.531382,38,96,144,283,632,168,38,27
1762970702.5688243,43,107,180,309,671,151,36,27
1762970702.5913436,43,107,173,294,618,136,33,25
1762970702.6303716,40,91,151,321,565,94,33,25
1762970702.6513155,47,103,147,293,530,81,33,27
1762970702.68887,47,88,121,236,539,84,38,28
1762970702.7128532,46,89,125,239,490,82,36,27
1762970702.7353354,47,98,140,217,419,73,35,27
1762970702.771345,58,189,260,206,377,59,35,34
1762970702.7938774,58,201,284,228,513,63,31,31
1762970702.8313413,57,197,278,209,628,59,33,31
1762970702.853839,51,172,241,210,651,63,39,28
1762970702.891354,39,74,107,157,622,48,41,27
1762970702.9153478,40,66,92,152,580,54,41,26
1762970702.951347,34,71,86,162,513,62,38,25
1762970702.9738379,38,68,90,162,437,61,36,26
1762970703.020338,36,55,97,194,441,60,39,24
1762970703.042024,40,46,89,207,461,59,56,32
1762970703.0713146,35,41,80,216,534,68,67,34
1762970703.0939677,35,35,58,187,580,74,71,35
1762970703.1313214,31,31,41,159,627,70,63,33
1762970703.1537914,32,29,42,137,658,67,67,34
1762970703.1913378,30,29,45,166,630,69,58,34
1762970703.213849,29,29,46,155,470,67,58,34
1762970703.2670102,35,36,74,164,399,66,41,28
1762970703.2888117,34,35,73,116,332,51,59,36
1762970703.3113189,34,36,79,142,346,48,60,36
1762970703.3353474,30,33,62,136,345,47,58,35
1762970703.3712802,22,33,59,145,440,49,53,31
1762970703.3938131,24,35,78,172,397,43,31,26
1762970703.4313173,24,39,96,180,540,46,27,25
1762970703.4538138,26,43,99,188,534,51,35,28
1762970703.4913101,28,44,85,154,497,44,37,26
1762970703.5138228,28,43,85,151,539,48,55,33
1762970703.551349,27,37,60,147,400,39,57,34
1762970703.5738788,26,38,64,161,356,38,57,34
1762970703.6113355,31,40,83,172,311,33,38,27
1762970703.6338434,33,42,86,179,303,31,35,25
1762970703.6712794,40,42,84,154,398,36,38,27
1762970703.6938095,46,66,70,137,359,39,37,29
1762970703.7163734,437,79,58,123,380,42,53,88
1762970703.753814,511,85,42,103,302,38,58,93
1762970703.7763195,670,109,47,97,337,79,62,140
1762970703.8138218,772,116,47,100,315,141,57,164
1762970703.836373,777,119,46,101,319,145,52,165
1762970703.8738174,664,103,52,95,244,136,41,132
1762970703.8963335,576,87,51,98,247,113,36,100
1762970703.9338417,649,161,55,96,279,92,34,112
1762970703.9563417,734,165,43,84,279,83,32,116
1762970703.9938886,761,177,111,76,202,74,33,127
1762970704.0163617,657,128,112,72,144,54,29,117
1762970704.0538187,544,116,113,56,101,41,28,100
1762970704.0762925,458,122,71,45,97,36,28,84
1762970704.0987928,616,135,49,33,69,31,30,97
1762970704.1363158,605,137,43,28,44,21,30,100
1762970704.173813,646,122,52,31,33,20,31,104
1762970704.1963196,510,97,54,30,26,18,28,94
1762970704.2338457,455,79,58,31,66,21,27,87
1762970704.2563167,312,75,61,34,71,20,23,72
1762970704.2938464,169,73,74,100,193,63,19,50
1762970704.3163545,148,69,95,131,204,77,20,41
1762970704.3537898,61,67,110,181,238,109,22,32
1762970704.3778558,57,67,123,188,224,143,28,32
1762970704.4139361,47,97,154,229,205,169,31,31
1762970704.4363792,47,97,163,248,180,227,36,25
1762970704.481315,53,107,177,333,190,259,49,28
1762970704.5113158,84,106,178,307,183,340,63,35
1762970704.5337858,88,114,183,287,175,309,64,37
1762970704.556299,85,114,186,258,248,299,55,33
1762970704.5939233,82,112,197,331,467,177,52,31
1762970704.616316,59,114,215,358,471,156,42,28
1762970704.6553276,57,145,227,411,539,154,38,24
1762970704.6778748,57,149,222,387,429,258,43,27
1762970704.6988425,58,147,234,355,483,258,44,26
1762970704.7362988,51,143,203,346,499,263,46,29
1762970704.758785,46,119,211,312,484,286,45,29
1762970704.7962792,41,124,211,272,419,181,40,28
1762970704.8188245,45,135,240,274,561,176,39,29
1762970704.857853,57,155,287,321,757,135,42,30
1762970704.8787992,59,167,297,336,806,114,46,33
1762970704.9162996,62,165,269,307,702,88,40,32
1762970704.9387918,64,156,254,246,614,77,44,33
1762970704.9613247,68,141,180,196,460,54,40,32
1762970704.9845307,96,133,194,173,455,60,54,39
1762970705.0137923,98,113,159,211,464,102,60,40
1762970705.0363026,98,104,156,217,445,110,59,38
1762970705.0670052,93,104,160,224,506,110,59,37
1762970705.0962934,50,104,153,225,597,100,40,27
1762970705.1188376,49,94,144,203,619,124,45,32
1762970705.1562946,39,92,146,208,650,118,43,33
1762970705.1787992,40,64,143,232,626,139,44,33
1762970705.2163193,37,58,121,270,593,139,40,29
1762970705.238813,38,56,118,283,633,151,42,30
1762970705.2763705,32,49,91,232,537,141,41,25
1762970705.2988005,31,44,81,203,504,152,44,24
1762970705.3212585,31,44,80,166,461,210,50,25
1762970705.3587859,28,39,82,190,440,219,48,28
1762970705.3813162,29,41,83,185,469,248,52,31
1762970705.4188128,28,35,78,184,477,210,45,29
1762970705.4563103,31,36,58,159,487,274,88,32
1762970705.478813,30,36,52,179,447,251,92,33
1762970705.5162642,35,41,62,228,628,306,98,35
1762970705.538819,36,43,64,232,603,311,96,36
1762970705.5763252,33,37,57,214,637,316,79,35
1762970705.5987895,32,35,55,197,551,282,79,37
1762970705.62129,31,33,50,202,646,275,81,38
1762970705.6587853,32,32,53,214,700,232,89,49
1762970705.681302,30,33,52,210,716,206,96,48
1762970705.7187977,32,34,50,161,566,282,97,44
1762970705.7413,31,32,43,149,593,329,103,46
1762970705.7788155,33,38,60,94,454,373,101,48
1762970705.8013182,33,38,59,89,429,350,106,47
1762970705.8388233,27,36,60,119,546,318,110,59
1762970705.8613162,22,27,46,117,536,314,114,61
1762970705.8987625,22,28,43,122,577,318,87,52
1762970705.921278,22,25,39,94,483,317,93,49
1762970705.9587882,22,38,44,113,481,306,87,50
1762970705.9812906,23,39,48,131,494,271,87,47
1762970706.0187886,31,46,57,180,490,187,86,48
1762970706.0413008,36,52,70,198,479,146,73,37
1762970706.0788043,38,65,83,186,431,123,109,56
1762970706.1012864,31,63,79,173,420,108,113,57
1762970706.1388083,30,56,69,143,495,121,124,64
1762970706.1613462,29,49,55,140,502,118,105,50
1762970706.1987703,25,32,52,174,522,113,82,44
1762970706.2212613,22,31,50,201,478,89,81,45
1762970706.2587922,22,41,60,223,556,73,51,27
1762970706.281266,23,40,56,226,607,81,87,48
1762970706.3187819,26,47,55,182,554,111,106,53
1762970706.3412888,25,41,49,163,457,113,118,66
1762970706.3787985,33,43,43,190,423,113,99,56
1762970706.4012928,36,54,51,214,501,72,83,52
1762970706.4388149,42,63,68,219,482,69,103,61
1762970706.4613314,49,87,97,210,463,97,104,62
1762970706.4987588,54,112,133,213,459,113,104,62
1762970706.5212796,57,115,146,206,487,113,106,64
1762970706.5587516,67,103,137,213,474,91,71,40
1762970706.5812912,83,90,119,172,451,80,69,52
1762970706.6037717,90,122,126,175,377,61,73,55
1762970706.6412637,117,133,110,126,316,51,57,51
1762970706.6637585,124,135,103,152,317,38,51,50
1762970706.7012863,108,106,88,170,441,44,40,31
1762970706.7237945,94,78,89,183,488,51,46,37
1762970706.7612922,69,104,132,170,492,78,47,41
1762970706.7920206,66,94,139,169,527,115,47,43
1762970706.8212914,63,97,148,177,438,118,43,37
1762970706.8438003,48,96,149,187,484,116,43,34
1762970706.881288,32,55,91,220,429,90,41,24
1762970706.9037993,28,63,102,223,386,81,36,24
1762970706.9413235,32,73,126,209,338,72,29,23
1762970706.9637825,32,76,131,217,355,108,40,23
1762970707.0096836,42,96,142,177,375,127,44,26
1762970707.0320048,40,85,114,252,451,146,46,26
1762970707.061304,43,86,115,252,443,133,39,28
1762970707.08379,41,79,120,256,449,133,35,25
1762970707.1212838,38,103,144,174,468,124,28,26
1762970707.1437912,37,105,146,148,438,112,29,27
1762970707.1813242,44,127,164,211,506,133,30,29
1762970707.20375,40,111,158,206,434,128,32,27
1762970707.2412713,40,119,144,201,434,124,32,27
1762970707.2637846,37,123,137,181,427,108,32,24
1762970707.3012655,31,102,108,139,403,87,41,27
1762970707.3237665,31,105,114,179,472,82,39,27
1762970707.361295,35,98,122,186,418,67,39,27
1762970707.3837695,37,94,111,186,470,65,29,25
1762970707.4304247,37,88,124,194,473,62,32,28
1762970707.4587884,36,62,104,216,494,70,35,29
1762970707.4812977,34,96,119,210,444,85,37,30
1762970707.5037937,35,97,100,187,468,86,37,32
1762970707.5270362,33,94,96,172,474,88,37,29
1762970707.5637827,31,93,92,117,412,87,51,29
1762970707.5869884,30,53,55,122,440,72,51,28
1762970707.6320004,28,51,51,106,430,65,49,28
1762970707.6612391,26,51,60,107,441,48,34,26
1762970707.6837442,25,51,59,100,431,49,36,26
1762970707.706707,26,46,60,117,403,46,37,23
1762970707.7439325,25,46,69,146,404,41,36,25
1762970707.7662568,26,44,64,170,436,47,39,22
1762970707.8037975,26,57,77,170,481,109,40,27
1762970707.8263104,24,48,65,166,450,148,41,26
1762970707.8637936,26,47,63,116,403,210,39,28
1762970707.8862655,28,43,60,114,347,193,37,25
1762970707.9237847,27,39,55,101,323,175,39,23
1762970707.9463153,27,39,57,97,286,155,40,25
1762970707.983736,24,39,67,120,283,152,45,26
1762970708.0063884,23,38,69,117,247,151,42,26
1762970708.0438085,24,31,71,181,302,177,46,29
1762970708.0662405,28,39,91,219,371,210,48,28
1762970708.1037655,40,60,115,272,477,355,85,34
1762970708.1263058,39,58,114,301,490,423,90,35
1762970708.1637917,37,56,103,245,492,496,93,34
1762970708.1862671,39,60,107,245,492,455,86,35
1762970708.2237935,28,43,73,187,500,390,61,29
1762970708.246295,29,44,72,194,451,293,60,30
1762970708.283739,28,42,74,198,386,290,58,24
1762970708.306287,31,39,68,177,400,315,88,35
1762970708.3437757,28,38,68,145,434,297,92,34
1762970708.366386,26,28,54,135,455,306,93,34
1762970708.4037702,24,24,47,151,452,316,67,26
1762970708.426384,26,24,45,151,425,290,61,28
1762970708.449469,27,26,51,172,436,290,62,29
1762970708.4862707,32,40,69,182,519,416,72,33
1762970708.5095007,35,42,74,158,502,484,73,35
1762970708.5462823,36,44,68,150,578,553,69,35
1762970708.5694592,34,39,54,162,583,559,80,35
1762970708.6063342,30,33,40,191,565,369,63,32
1762970708.629459,26,30,36,167,460,370,65,29
1762970708.6663022,24,27,36,191,610,287,75,30
1762970708.6894674,27,28,43,179,611,293,73,30
1762970708.7263227,37,39,44,191,567,246,71,31
1762970708.7495008,39,44,53,196,435,210,70,33
1762970708.7862551,39,45,46,134,250,166,56,30
1762970708.8096204,32,42,45,118,272,167,52,27
1762970708.8462605,28,36,36,82,335,147,51,27
1762970708.8694973,31,46,43,77,342,127,44,26
1762970708.9062405,33,52,48,68,338,114,54,27
1762970708.92946,37,77,79,62,268,97,56,26
1762970708.9662411,33,81,83,68,259,93,56,24
1762970708.9899046,32,86,90,173,393,80,32,23
1762970709.0263028,29,81,85,205,382,65,30,22
1762970709.0494704,30,87,89,236,400,62,44,26
1762970709.086268,31,80,89,190,357,53,47,25
1762970709.1096604,30,83,92,206,406,94,49,27
1762970709.1463406,33,75,89,156,409,107,41,25
1762970709.1694078,34,77,100,189,375,111,40,27
1762970709.2062404,30,79,112,212,458,79,35,23
1762970709.2294793,30,80,110,213,440,63,30,21
1762970709.2662363,29,95,130,179,495,58,30,24
1762970709.2894676,31,92,126,176,451,59,28,24
1762970709.326269,33,96,123,156,367,59,41,28
1762970709.3494406,31,88,109,158,397,58,42,28
1762970709.37193,27,80,83,166,416,50,40,25
1762970709.4087336,35,86,110,163,459,62,44,28
1762970709.4320288,38,83,121,183,467,69,41,27
1762970709.4687388,54,91,199,322,736,333,72,42
1762970709.4919903,60,86,210,398,858,373,83,50
1762970709.5287476,59,85,198,418,872,403,94,50
1762970709.5520055,60,91,180,411,909,427,95,50
1762970709.5887244,49,104,156,324,624,331,72,31
1762970709.6120064,47,107,153,316,651,314,66,30
1762970709.6492043,46,120,172,310,530,317,59,33
1762970709.6794634,34,97,129,283,521,283,50,30
1762970709.7087579,36,91,122,237,621,286,57,37
1762970709.73193,37,113,139,218,631,268,50,36
1762970709.7687428,36,99,130,244,773,287,51,34
1762970709.791914,36,98,142,241,733,261,39,29
1762970709.8287446,34,83,131,226,676,227,35,26
1762970709.8520057,37,98,125,234,709,222,32,26
1762970709.8887434,41,107,117,180,566,152,33,29
1762970709.9120262,37,99,109,185,561,140,40,32
1762970709.9487329,32,78,93,181,527,165,44,32
1762970709.97199,31,75,78,177,517,164,45,33
1762970710.008793,27,54,68,209,569,215,42,26
1762970710.0319207,27,47,70,194,569,203,42,27
1762970710.0687683,31,50,76,223,651,232,62,37
1762970710.0919156,36,51,76,220,693,245,81,41
1762970710.1287549,37,46,67,179,676,257,129,46
1762970710.1519244,39,37,55,147,674,238,129,48
1762970710.1887457,35,30,45,128,678,227,133,43
1762970710.2119868,33,30,50,116,643,217,135,38
1762970710.2487543,30,27,41,106,561,197,147,39
1762970710.271988,28,24,40,111,600,179,146,39
1762970710.3087223,28,23,34,104,494,149,129,45
1762970710.3319974,28,25,44,95,486,146,95,39
1762970710.3544188,31,31,49,163,668,143,76,41
1762970710.391898,41,39,63,185,634,148,74,40
1762970710.414451,41,39,68,196,609,136,57,33
1762970710.4519875,37,36,68,155,335,140,48,30
1762970710.4744222,31,35,62,146,337,130,41,26
1762970710.5124054,25,29,52,126,324,122,33,21
1762970710.5344548,25,31,55,143,328,119,32,21
1762970710.5719988,32,36,73,174,457,163,29,21
1762970710.5944552,32,36,78,195,486,168,38,24
1762970710.6319447,28,33,72,172,491,200,42,26
1762970710.6548395,33,39,76,171,402,182,41,26
1762970710.6918674,35,45,74,166,401,165,34,26
1762970710.7144566,36,45,74,169,420,178,45,26
1762970710.7594771,32,42,69,173,468,143,45,29
