Timestamp,CH_1,CH_2,CH_3,CH_4,CH_5,CH_6,CH_7,CH_8
1763470995.5683541,0,-2,-2,-3,-2,-1,-1,-1
1763470995.5767052,-1,-2,-2,-3,-5,-2,0,-1
1763470995.5835989,0,-2,-2,-1,1,-1,-1,1
1763470995.5997946,0,0,-2,-3,0,0,-1,-1
1763470995.622288,0,-3,-3,-2,2,-1,0,-1
1763470995.6366057,-2,-3,-4,1,-1,-1,-3,0
1763470995.64341,-2,-1,-1,-2,-2,-1,-2,-3
1763470995.6598923,-1,-3,-2,-4,-1,-1,-2,-1
1763470995.6823766,1,2,-2,-3,-1,0,-1,0
1763470995.6959057,-1,1,0,-7,-2,0,-1,-1
1763470995.7048461,0,0,0,0,0,-1,-1,-1
1763470995.71975,-1,0,1,1,-2,-2,-1,-2
1763470995.7422345,-1,-2,0,-2,0,-2,0,-2
1763470995.7563572,-3,-1,0,2,-2,0,0,0
1763470995.7650392,-2,-2,-2,7,-1,-2,0,-2
1763470995.779711,-1,0,-1,-1,-2,-1,-2,0
1763470995.8022013,0,-1,1,4,1,2,0,-2
1763470995.8159173,-1,-2,-3,-2,-1,0,0,0
1763470995.8249333,-2,-3,-3,-11,-1,0,-2,-2
1763470995.8397152,-1,0,-3,-3,0,-2,-1,-1
1763470995.8624413,-2,-2,-5,1,-1,-4,0,0
1763470995.8760707,0,-1,1,0,0,-1,-1,0
1763470995.8848581,-1,-4,-3,-2,-1,0,0,-1
1763470995.8998063,0,-1,0,0,-1,-1,-2,-2
1763470995.9222307,-1,0,-2,-6,-2,0,-2,1
1763470995.9360452,-1,-3,0,0,-1,2,1,0
1763470995.9448829,0,-1,-3,-2,-1,-2,-1,0
1763470995.9598675,-1,0,3,1,0,-2,0,-1
1763470995.9822326,-2,-1,0,0,0,0,-2,-1
1763470995.9960032,-1,0,0,-1,0,-2,0,-1
1763470996.0110462,0,0,-1,-2,-3,0,-1,0
1763470996.0198872,-1,-3,-9,-5,-2,-2,-2,-1
1763470996.0422964,-2,0,0,0,-2,-1,-1,-1
1763470996.072155,-2,0,0,0,-1,1,-1,0
1763470996.0797515,-2,-1,-2,1,-2,-2,-2,-2
1763470996.1022947,0,-3,-2,-4,-6,-2,0,0
1763470996.115899,-1,0,0,-2,-1,-2,0,-1
1763470996.1247692,-1,-1,-2,-12,-2,0,-1,-2
1763470996.1397698,0,0,1,-2,-1,0,-1,-1
1763470996.1623034,-2,0,0,0,0,-3,-3,-1
1763470996.1847668,-1,0,0,4,1,-1,0,-1
1763470996.1998475,0,1,5,4,2,-2,-1,-1
1763470996.2221665,0,-2,-2,-3,0,2,1,-1
1763470996.2447312,-1,-1,-1,0,-2,0,-1,-1
1763470996.2590637,0,-4,-6,-2,-1,1,0,-1
1763470996.2658188,0,-2,3,11,2,-2,-1,-1
1763470996.2822125,0,-1,1,5,0,-3,-2,-1
1763470996.305082,-1,-1,-1,-6,-1,0,-2,-1
1763470996.319167,-2,-2,-5,-5,-1,-2,-2,0
1763470996.3258688,0,-2,-2,0,-1,-2,0,-2
1763470996.342293,0,-2,-2,-2,0,-1,1,-2
1763470996.3648908,-1,-1,0,-2,1,4,1,-1
1763470996.3790135,-1,0,0,-1,0,-2,0,-1
1763470996.385867,0,-1,-1,-3,-1,0,-1,-1
1763470996.4027207,-1,-1,1,9,0,0,-2,-1
1763470996.424883,-2,-1,0,-2,-1,-1,0,0
1763470996.4390469,1,-1,-2,-5,-1,-2,-1,0
1763470996.4459229,0,-1,0,-2,-2,-2,-1,-2
1763470996.462234,-2,-1,-1,-2,-1,-1,-2,-2
1763470996.484851,0,0,1,-2,-3,-2,0,-1
1763470996.4991324,-2,-1,-1,-1,-2,-3,-1,-1
1763470996.506035,0,0,-1,0,0,-2,0,-2
1763470996.522406,-1,-2,0,1,-1,-4,-4,1
1763470996.5448084,0,1,-2,-2,-1,0,0,1
1763470996.5589225,-1,-1,0,0,-2,-2,-1,-2
1763470996.5675108,0,-1,1,-1,0,-2,0,-3
1763470996.5835965,-1,-1,0,-3,0,0,0,-2
1763470996.605757,0,-2,-3,-2,-1,-1,-1,0
1763470996.619333,-1,-1,-3,-1,-3,0,0,-1
1763470996.6284103,-1,-2,0,-3,-1,-1,-3,-1
1763470996.6423066,-2,-1,-2,1,0,-2,-1,-1
1763470996.664733,0,0,1,2,-4,-1,-2,0
1763470996.6784418,0,-1,0,-1,0,0,1,1
1763470996.6873221,-2,-2,2,2,0,-1,-2,-1
1763470996.702325,-1,-1,-3,9,-1,-1,-2,0
1763470996.7249205,-2,-2,-3,-4,2,0,1,-1
1763470996.7383647,-1,-1,1,-2,-1,0,0,-1
1763470996.7473526,-2,-1,-1,-1,0,-1,-2,2
1763470996.762209,0,-1,0,2,-1,-2,-2,-1
1763470996.7922053,-2,0,1,1,1,-1,0,-2
1763470996.798405,0,-1,-1,-8,0,0,-2,-1
1763470996.8073838,-2,-1,-2,-3,-1,-1,0,0
1763470996.8221464,0,-3,-5,-6,-3,-1,-1,0
1763470996.845485,-1,0,-2,-4,-2,-2,-1,-2
1763470996.8584812,-1,-2,0,-1,0,0,-1,-1
1763470996.8678913,-1,0,-1,-1,0,-1,-1,-2
1763470996.8825657,1,0,-2,-2,-1,0,-1,-2
1763470996.9048023,-2,1,0,-3,-4,-1,-1,0
1763470996.9185314,0,-4,-1,1,0,-1,-1,-1
1763470996.927723,-2,0,0,-3,0,-2,-1,-2
1763470996.942289,-2,-3,0,-1,0,-2,-1,1
1763470996.9649127,-1,-2,-3,-4,-2,-1,-1,-1
1763470996.9784951,-2,0,-1,0,0,0,-1,-1
1763470996.9873884,0,-1,1,8,-3,-2,2,-2
1763470997.0023365,-1,0,-2,-1,-2,-2,-2,-2
1763470997.0247662,0,0,2,1,-2,0,0,-3
1763470997.0384865,-2,-1,-1,-3,0,-1,-2,-1
1763470997.0472767,-1,0,-2,-2,-2,-1,-1,-2
1763470997.0619872,-2,-2,1,9,2,1,0,-1
1763470997.068462,-1,0,2,7,5,3,-1,-1
1763470997.0848026,-1,0,-1,-5,-1,0,-1,-1
1763470997.107251,-2,-2,-3,-4,-1,-1,-2,0
1763470997.1227398,0,0,1,-1,-2,-2,0,0
1763470997.144778,0,-2,-4,-4,-1,-2,0,0
1763470997.1671934,-1,-1,1,0,-1,-1,0,-1
1763470997.1822631,-1,-1,-3,0,-2,-1,-1,0
1763470997.204858,0,-2,1,-3,-1,-1,1,0
1763470997.226328,-1,-1,-3,9,-1,-2,-1,-2
1763470997.2348297,-1,2,-1,-4,-1,0,-2,-1
1763470997.2415202,-1,-1,-1,-6,-1,-1,-2,-1
1763470997.248345,1,-1,1,0,0,-1,-1,0
1763470997.264759,-1,1,-3,-3,-1,0,1,-1
1763470997.287305,-1,0,0,2,-2,-1,-1,-1
1763470997.3021266,-2,-2,1,-1,1,1,0,1
1763470997.3084757,-1,-1,-2,0,-1,-3,-3,-1
1763470997.3251188,-1,0,0,-1,0,-1,-2,1
1763470997.3473141,-1,1,1,-1,-1,-2,-3,-2
1763470997.361655,0,0,-2,0,-1,-2,-1,1
1763470997.3683782,-2,-2,-1,-1,0,0,0,-1
1763470997.384743,-2,-2,-1,-2,0,-2,-1,-1
1763470997.4072175,0,0,-1,-1,-2,-1,0,-1
1763470997.421728,-1,-4,-6,-3,0,0,-2,-2
1763470997.428401,1,0,-1,-2,-2,0,0,-1
1763470997.4448252,-2,-2,-2,-4,-4,-1,-3,0
1763470997.4672835,-1,-1,0,-1,-2,-1,-1,-1
1763470997.481553,1,0,0,-1,-1,-1,-2,-2
1763470997.4884586,0,-1,1,-1,-1,0,-1,0
1763470997.5122986,0,1,2,0,-2,0,-1,1
1763470997.5273757,-1,1,0,10,0,1,-1,0
1763470997.5416105,-1,-2,-1,-4,-3,0,1,0
1763470997.5483584,0,0,-3,1,-1,0,-1,-1
1763470997.5646617,-2,-1,-1,4,0,-2,-2,0
1763470997.5874212,0,-2,-1,-4,0,-1,-2,-2
1763470997.6011093,1,-1,-1,-9,-1,-1,-1,-2
1763470997.6099138,0,-1,-2,-4,-1,0,-1,0
1763470997.6253316,1,1,2,-3,-3,0,0,-2
1763470997.6472187,-2,-3,-5,-5,-1,-1,0,-2
1763470997.6610765,-1,-1,0,-1,0,-1,-1,-2
1763470997.6701272,-2,-1,1,10,-1,0,-1,0
1763470997.6847184,0,-1,-2,0,0,-2,-1,-2
1763470997.7072906,-1,-3,-3,2,-1,-2,-1,0
1763470997.7209282,0,0,-1,-2,-3,-2,-1,-2
1763470997.729985,-1,-2,0,1,-1,1,-1,-2
1763470997.7448168,-1,0,0,-1,0,0,-1,0
1763470997.767296,-2,-1,-1,-1,-2,-1,0,0
1763470997.7809398,-2,-2,1,3,-1,0,-1,-1
1763470997.790054,0,0,-3,-3,0,0,-1,-2
1763470997.805026,-2,-2,-1,-2,-1,-1,-2,-1
1763470997.8274589,-1,1,-2,-3,0,-1,-1,1
1763470997.841194,-2,-3,2,3,-1,-3,-1,-1
1763470997.8500214,0,0,-3,-6,-2,-1,-1,-1
1763470997.8648138,-1,-1,-3,-3,0,-1,1,-2
1763470997.8874264,-2,0,0,0,-2,-1,-1,-1
1763470997.9011703,1,0,2,11,-1,1,0,-2
1763470997.9098444,0,-2,-5,-4,-2,-1,0,1
1763470997.9249446,-1,-1,-1,-4,-1,-1,0,-1
1763470997.9552717,0,-1,-1,-3,0,-1,-2,0
1763470997.9611437,-1,-1,-1,-3,-1,0,-1,-1
1763470997.9701033,0,-3,-1,0,1,1,-2,0
1763470997.9848702,-3,-3,-5,-5,-1,-2,-1,0
1763470998.0148225,0,-3,-2,-2,-1,0,-1,-1
1763470998.0210154,-2,1,1,-1,-1,-1,-3,0
1763470998.0298655,-1,0,-2,1,0,-2,0,-2
1763470998.0448172,-2,-1,-2,6,-2,-2,-1,-1
1763470998.0673378,-1,-1,-2,-5,-2,-4,-3,-2
1763470998.08984,1,0,-1,-3,-2,-3,0,-1
1763470998.1050014,0,2,-1,-1,-1,0,2,-1
1763470998.1276538,0,-3,-1,-2,-2,-3,-1,-1
1763470998.1501372,-1,-2,-2,-4,-1,-1,0,-1
1763470998.164704,-2,-2,-2,-1,-2,-1,-3,-2
1763470998.1873379,-2,-2,0,6,0,1,0,0
1763470998.2098184,-1,-1,-2,-6,-1,-1,-1,-1
1763470998.2239738,-3,-3,-2,-1,-2,-1,1,-2
1763470998.2327716,0,0,0,-1,0,-1,-2,1
1763470998.247205,0,-1,-3,-3,-2,1,-2,0
1763470998.2698746,0,-1,-1,-1,0,0,-1,0
1763470998.2841094,0,-2,3,8,1,-2,-2,-3
1763470998.2910986,-1,-3,-2,-3,-1,-3,-1,0
1763470998.3075318,0,0,0,-4,-2,-2,-2,-1
1763470998.33006,-2,-3,-2,8,0,-1,-1,0
1763470998.3441186,-2,2,-1,-6,0,2,0,-2
1763470998.3509233,-1,1,1,-2,-1,0,-1,-1
1763470998.3672774,0,1,-2,-4,-1,-2,-1,0
1763470998.3898685,0,0,0,-1,0,-1,-2,-1
1763470998.4040549,-1,-2,-1,-4,0,1,0,0
1763470998.410887,-2,-1,-4,-5,-2,-1,1,-1
1763470998.4272616,-1,-1,-2,-2,-3,-2,-2,-2
1763470998.4497328,-2,-1,-3,-3,-1,-1,-1,-1
1763470998.455905,-1,1,0,-1,0,-1,0,-2
1763470998.464093,0,-1,0,0,0,1,-3,0
1763470998.4710138,0,-1,-2,-13,-3,-1,-2,-1
1763470998.4873068,0,-2,-1,-3,-1,0,1,0
1763470998.5097485,-1,1,-1,0,-1,1,0,-1
1763470998.5233872,-1,-2,2,8,-2,-2,-1,-3
1763470998.5323288,-1,-1,0,-6,-1,0,-1,-1
1763470998.54724,0,-1,-2,-5,0,-2,0,-1
1763470998.569845,-1,0,0,-2,-2,-1,0,-1
1763470998.5833657,-2,-3,2,-1,1,-1,0,0
1763470998.5923228,-2,-1,-2,0,-3,-2,0,-1
1763470998.6076086,0,-1,1,8,0,2,-3,-1
1763470998.6299243,-1,-3,-2,6,0,-2,-1,1
1763470998.6434126,-1,0,-1,-5,0,-1,-2,-1
1763470998.6524456,-1,-1,-2,-2,-1,-2,1,-2
1763470998.6672606,-1,0,0,-4,-4,-4,0,-2
1763470998.6897595,-1,0,-3,-12,-1,0,0,0
1763470998.703382,-1,-1,0,-3,-2,-3,-1,-2
1763470998.7123158,-2,1,-1,-1,-2,0,0,0
1763470998.7347572,-1,-2,-4,-2,-1,-2,-1,0
1763470998.749825,-1,-1,-3,0,1,0,-2,0
1763470998.7635255,-2,0,1,0,-2,0,-1,0
1763470998.7724173,-2,-2,-5,-3,-2,-3,0,-2
1763470998.787253,-1,-1,1,2,-2,-1,1,-2
1763470998.8099594,-1,0,0,-2,1,0,-1,0
1763470998.8233292,1,1,-1,-1,0,-2,-2,0
1763470998.8493395,-1,-2,-4,-9,-3,-2,-1,0
1763470998.8698475,-2,-2,-1,1,-2,-1,0,-2
1763470998.8844745,-2,0,0,2,-1,-3,-2,-2
1763470998.8990557,0,-2,0,1,-2,-1,-2,-1
1763470998.9079046,-2,-2,-2,0,-2,1,-1,-1
1763470998.9302156,1,5,3,-1,-1,-1,-1,-1
1763470998.9434068,-4,-14,-4,0,-4,-8,-3,-2
1763470998.9524403,-1,4,9,6,-7,-3,-4,-1
1763470998.966601,-2,-10,-9,-27,-19,-6,-4,-3
1763470998.973403,8,38,20,-8,-22,5,0,3
1763470998.9897645,-12,-5,-36,-8,-11,3,-1,-4
1763470999.0124214,-15,-50,11,-16,13,-2,-7,-5
1763470999.0266662,12,7,32,10,-14,-8,2,5
1763470999.033444,-22,-28,-25,-34,-21,-11,-12,-1
1763470999.049753,13,32,18,11,8,16,9,4
1763470999.072246,-14,-53,-34,-10,48,13,0,-3
1763470999.0866532,16,72,41,29,-19,-8,1,3
1763470999.0934107,-6,0,14,-15,-1,0,4,5
1763470999.1097686,-2,20,-15,-5,6,-7,-3,-1
1763470999.1322696,2,-4,4,19,23,-2,0,-10
1763470999.1466534,-5,-19,17,6,-25,8,0,8
1763470999.153449,1,7,5,46,20,5,-11,-26
1763470999.1697636,3,5,4,-34,-21,-24,-17,-55
1763470999.199889,2,0,0,32,11,-8,4,8
1763470999.206052,20,20,4,-3,-12,-31,3,32
1763470999.2297516,10,13,7,28,15,-13,-12,-23
1763470999.2374723,12,-2,-20,-27,-26,67,50,51
1763470999.2525105,-29,-17,-76,-106,17,30,-12,-47
1763470999.2659233,12,10,29,73,23,-21,-3,-82
1763470999.2751684,-5,-8,3,25,12,-42,-9,14
1763470999.289932,-6,-9,-32,-30,8,2,-17,-15
1763470999.3123085,23,18,34,60,-15,34,14,5
1763470999.325875,9,-8,17,38,-39,2,23,41
1763470999.3518825,-15,-13,-27,-56,-18,-35,31,18
1763470999.3723454,-19,-3,-14,-19,-11,-26,-11,-19
1763470999.3861217,-17,-7,17,71,14,-73,-46,0
1763470999.3950462,-23,11,43,23,-13,-26,-34,-37
1763470999.4099333,-1,-4,-3,-32,6,-32,-8,-28
1763470999.4397354,-20,-1,-6,-27,34,55,-19,59
1763470999.4458098,22,22,12,-43,-51,-16,40,41
1763470999.454879,-22,-16,-33,29,22,-44,-16,-28
1763470999.469797,26,4,-2,-2,35,26,-33,-31
1763470999.4922545,-38,-28,-44,22,10,9,-7,-19
1763470999.5059185,-2,-2,7,13,-29,-33,-23,8
1763470999.5148993,-4,-11,-55,-9,27,18,-26,-23
1763470999.5297682,-21,4,18,-22,-21,39,48,8
1763470999.552657,32,-1,-2,-2,-11,-10,-20,9
1763470999.566617,-22,-6,3,12,0,38,6,-97
1763470999.5748253,10,-1,-7,-56,-30,-18,-8,15
1763470999.6211195,18,21,27,20,39,47,73,81
1763470999.6281352,26,22,27,34,21,38,-20,6
1763470999.6349614,9,-12,17,72,40,-1,53,127
1763470999.6574528,9,-9,-37,34,20,-43,-9,-2
1763470999.6724768,1,-5,-22,-27,46,11,13,28
1763470999.6941895,-3,13,19,-10,5,8,-8,5
1763470999.7203245,2,8,6,-6,0,47,-26,-52
1763470999.7317815,-14,-9,-19,-28,-41,0,-10,-25
1763470999.771315,7,1,16,30,18,13,10,-7
1763470999.776543,-5,-3,-6,-35,6,-23,-12,-31
1763470999.7916563,5,-5,-15,-9,-1,-4,-15,24
1763470999.8223777,-9,-12,16,-2,-29,-52,-20,-77
1763470999.829258,-12,13,15,11,7,29,15,-3
1763470999.8599088,12,6,-2,-90,2,-36,-7,9
1763470999.8823795,17,2,5,-7,70,10,36,29
1763470999.889051,8,-1,-7,60,-3,10,-24,28
1763470999.9116442,-8,-30,-56,-3,-45,-38,-4,49
1763470999.9341626,-7,5,4,-1,12,-25,11,-60
1763470999.9589102,3,-8,5,56,3,-42,-44,-6
1763470999.9715688,8,12,37,12,-12,53,7,45
1763470999.9941325,-7,11,7,30,-2,50,13,-8
1763471000.009213,21,7,-3,-8,-14,13,6,-10
1763471000.03153,-30,-14,-29,-42,21,31,-3,-112
1763471000.0712473,-11,-9,11,-5,-63,23,50,-17
1763471000.0767534,3,-3,-22,11,7,-21,22,34
1763471000.0916004,11,19,29,-12,1,-32,-19,102
1763471000.114132,2,-19,-83,-8,73,-12,9,8
1763471000.1291332,3,5,19,-4,-19,11,2,-23
1763471000.1516075,-7,-2,0,-36,-99,-59,4,22
1763471000.1748097,-2,-3,-7,-4,43,22,31,-21
1763471000.189085,11,-8,-9,13,-1,-36,22,77
1763471000.211614,48,28,31,12,24,-8,-16,30
1763471000.2340817,-7,-1,-4,-8,9,10,2,68
1763471000.2490945,-16,-16,-2,13,-11,-7,16,-57
1763471000.2874656,7,5,-13,-11,-1,-22,-25,-16
1763471000.3024225,-17,0,17,58,11,-11,-30,-31
1763471000.3092263,0,1,-13,36,45,67,-19,-12
1763471000.3315492,2,-3,8,-19,8,-5,-2,-26
1763471000.3542435,4,-2,-2,18,-27,-52,-26,-25
1763471000.3683658,-10,-3,2,-20,-19,4,1,5
1763471000.3766327,-6,11,12,31,14,-29,-10,6
1763471000.3916712,-5,14,4,-7,-17,35,77,63
1763471000.4141042,-15,-10,8,-19,-37,-37,-27,-94
1763471000.4285448,-9,-19,-18,-34,16,12,-33,-32
1763471000.436794,-10,-10,-13,5,43,-19,-22,-37
1763471000.4515984,15,0,4,17,7,-29,-7,100
1763471000.474157,-1,8,10,-13,28,13,19,-72
1763471000.4884055,0,-16,-49,-44,32,45,62,-22
1763471000.496627,-8,-11,-7,22,-10,-15,-4,-63
1763471000.5115879,-7,5,2,-11,-65,-24,-35,61
1763471000.5340922,10,19,33,39,0,3,-18,-29
1763471000.5485237,-20,-3,-1,15,8,7,30,38
1763471000.564173,-11,-15,-45,-36,33,4,32,-40
1763471000.5717227,-4,-16,6,-18,-25,-20,3,-18
1763471000.594289,-4,5,24,-11,2,6,-30,-17
1763471000.6084828,0,-4,-1,39,17,34,1,3
1763471000.6166887,-28,-12,-7,-24,-37,-1,-15,46
1763471000.6313293,22,8,-19,32,47,16,-2,-48
1763471000.6391852,-12,2,14,-10,-16,-13,-8,-42
1763471000.6543186,-4,-14,-20,-4,25,-34,-43,-26
1763471000.6779294,4,-3,-24,-46,-9,-3,13,-62
1763471000.6916974,-5,6,3,-11,-43,-8,6,0
1763471000.714062,-12,-4,-14,-18,-1,5,15,-20
1763471000.7284844,4,1,13,-11,-4,1,-13,-18
1763471000.7369134,-6,6,9,-4,30,-16,-33,-80
1763471000.7519016,-9,-2,-7,24,-21,-33,-9,-30
1763471000.7742505,4,-4,-5,36,20,22,0,-13
1763471000.7885425,3,4,3,-10,3,-1,-14,36
1763471000.8041658,-2,0,14,63,-9,6,-14,9
1763471000.8115413,16,-3,-3,13,20,-8,-9,34
1763471000.834177,-10,-9,-1,-11,-28,-7,10,26
1763471000.8489282,6,3,7,20,-10,18,9,1
1763471000.8569322,5,-9,-18,9,15,12,-28,47
1763471000.871959,-18,2,19,8,-21,13,-4,-5
1763471000.8942358,6,3,-9,-10,25,20,24,22
1763471000.9173105,-5,7,4,-33,3,-16,-35,-5
1763471000.9316077,6,8,15,7,4,-15,-16,0
1763471000.9541163,-7,-6,-18,-46,40,-52,5,-35
1763471000.9773505,-5,-15,4,22,-4,31,14,22
1763471000.9998198,1,-4,-3,-1,-8,15,15,-6
1763471001.014069,-1,-4,-9,-4,33,30,16,46
1763471001.0373926,6,-1,-16,0,-4,6,-16,5
1763471001.051607,5,-2,-9,-15,5,14,61,-11
1763471001.0741043,20,2,17,63,-38,-8,-13,25
1763471001.0974028,-23,-8,10,-9,-31,-9,-35,-46
1763471001.111612,0,1,15,45,-1,1,-10,-25
1763471001.1340919,0,5,-1,-11,16,0,8,66
1763471001.156735,-6,5,-6,-42,-64,-29,-36,-25
1763471001.1715593,2,0,-13,-6,28,6,-2,28
1763471001.1941786,17,4,-7,1,-2,-15,-15,93
1763471001.21671,8,3,7,-16,7,-41,-18,-2
1763471001.231633,-16,3,22,21,9,2,7,-46
1763471001.2541287,11,6,0,16,-22,16,21,-19
1763471001.2850502,0,-3,-1,-41,3,0,-5,-9
1763471001.2918496,-8,-7,-19,-29,18,-6,1,-9
1763471001.3142858,-19,-5,-10,17,14,59,19,65
1763471001.3366847,-1,-2,-6,1,4,-31,-20,-26
1763471001.35155,-6,-2,14,6,3,-45,-7,-24
1763471001.3740973,14,5,5,34,-10,23,15,-13
1763471001.396609,-12,-10,-7,9,-3,2,-8,-17
1763471001.4115603,-5,-1,5,10,-55,-16,-10,-50
1763471001.434106,-16,3,21,-27,16,30,2,48
1763471001.4565945,7,-5,-3,-1,24,-35,-16,-10
1763471001.4709842,13,5,1,-7,3,20,13,-8
1763471001.4788992,18,9,18,-13,6,-22,-34,16
1763471001.5023234,-2,-4,-6,-15,-9,11,-20,-45
1763471001.5166047,-4,-18,-16,-5,-7,-25,10,-13
1763471001.5310965,-1,1,8,30,-5,-41,-7,-74
1763471001.5467923,5,-1,-5,9,-32,-7,6,9
1763471001.5539958,1,-8,-12,1,24,18,-13,72
1763471001.5765853,-10,-1,-5,-14,-4,1,-13,-74
1763471001.5909479,13,10,-13,-55,-35,-16,-13,28
1763471001.5990772,-23,-5,7,8,-3,-23,-21,-4
1763471001.614044,-1,3,2,-34,5,7,19,-26
1763471001.6365552,7,2,-11,22,-27,20,22,13
1763471001.6614294,1,-1,6,17,-4,-25,-19,26
1763471001.6742325,-28,-14,-31,16,-1,-22,38,-25
1763471001.6970146,-3,-2,6,23,7,10,32,11
1763471001.7112238,3,7,32,70,3,61,39,21
1763471001.7190418,8,1,0,3,-7,15,-52,-47
1763471001.7340858,4,-2,-4,-54,7,-7,-16,2
1763471001.7566144,0,-7,-14,-3,17,-1,-31,61
1763471001.7798493,6,3,-16,-30,-16,-22,17,-7
1763471001.802291,-13,-3,-10,-38,-5,-31,6,26
1763471001.816624,0,2,10,21,17,10,-27,-37
1763471001.8399115,-3,3,4,-12,-23,11,-13,6
1763471001.8540504,-8,-14,-27,12,-13,-25,-6,-12
1763471001.8767493,9,1,12,-16,16,-9,4,49
1763471001.8999968,-1,-1,2,23,7,18,-12,-13
1763471001.9141421,-2,-13,-22,-12,-2,38,8,-2
1763471001.9539158,17,7,21,-39,-1,-39,9,-45
1763471001.959897,10,8,24,56,-3,9,38,-15
1763471001.9741938,-11,3,-5,-9,15,34,-31,-16
1763471002.004941,1,-2,0,3,-8,-24,-9,9
1763471002.0198998,-1,0,15,75,14,-25,-14,69
1763471002.0498216,-12,-1,-1,3,4,61,26,-38
1763471002.0566478,-5,-1,0,-14,26,-36,-38,-18
1763471002.0797677,-7,-1,-8,1,-12,-1,-15,-23
1763471002.102461,3,-8,1,-10,34,78,28,45
1763471002.124804,-4,-8,-13,-16,-11,-27,-18,-13
1763471002.1398416,15,8,8,-10,-22,-5,7,1
1763471002.1540604,-9,-1,-3,-7,-2,-16,-14,-56
1763471002.1767476,-2,-3,-8,-22,3,-25,-17,-18
1763471002.2000053,-10,5,11,18,3,9,7,35
1763471002.2142162,-10,-8,-22,16,1,-23,-11,-72
1763471002.2460463,0,0,-6,18,-22,-13,13,4
1763471002.2604861,-5,3,10,-37,-4,24,14,47
1763471002.2741852,3,-1,-4,-5,1,4,-2,17
1763471002.3048868,13,1,5,2,-18,-8,21,19
1763471002.3203123,-2,-4,-12,20,7,-8,-21,-13
1763471002.3429887,5,2,11,23,-21,-7,-6,-1
1763471002.3565743,-2,2,0,-44,-9,-25,4,3
1763471002.3797495,-2,-5,1,17,1,6,3,7
1763471002.3941603,-2,7,7,4,2,-8,-18,11
1763471002.4165993,1,-12,-31,-29,-32,-2,29,7
1763471002.4398918,10,4,-1,-25,15,-6,-22,-19
1763471002.4535341,0,4,7,27,12,10,-14,2
1763471002.4616668,-10,-5,4,-11,-2,-11,-7,-27
1763471002.4765654,2,-2,11,-26,3,17,23,13
1763471002.5072725,6,6,13,3,-2,35,10,7
1763471002.5133467,-4,4,14,-4,-9,-4,-20,-36
1763471002.5216353,-6,-1,-14,-4,-12,-5,-28,-4
1763471002.5367665,-15,-8,1,-2,25,-3,14,-41
1763471002.5597548,-7,-2,-2,17,-33,-34,-19,20
1763471002.5734456,8,3,5,-10,-10,15,-9,84
1763471002.5815964,-1,3,13,-27,1,5,44,-78
1763471002.5965824,2,0,-30,-51,-9,-22,-29,-20
1763471002.6263866,5,-4,-4,21,14,-13,11,-16
1763471002.6348093,4,-4,10,21,-17,-10,-5,-46
1763471002.6423342,4,4,9,18,-49,-18,-5,-10
1763471002.6566389,1,-1,2,24,-17,-31,-8,-19
1763471002.6798058,-16,4,0,-8,17,30,17,-15
1763471002.6935155,7,4,11,18,-1,21,10,-7
1763471002.7015996,9,-2,-2,13,37,14,4,18
1763471002.7166846,-3,-4,-5,5,19,39,-10,-3
1763471002.7399342,11,-2,-23,-59,7,-16,-18,5
1763471002.7534583,3,-9,-11,18,17,45,37,48
1763471002.7616825,-7,2,-2,-7,-27,-12,-32,-38
1763471002.7765946,6,-11,-25,-27,-31,-47,0,-18
1763471002.7999024,-1,3,22,36,2,-16,21,33
1763471002.8225446,19,7,12,-28,-12,-14,43,19
1763471002.8366318,-3,-5,2,21,-18,-10,-17,76
1763471002.844486,-1,-5,-2,-2,1,15,13,-18
1763471002.8594973,6,0,2,34,11,-5,-11,0
1763471002.8826935,0,-1,-12,-32,3,8,4,-33
1763471002.8968465,-5,7,12,0,-22,-18,-21,-65
1763471002.9275205,-7,3,10,21,12,5,-2,-116
1763471002.9499736,-5,-8,1,-26,26,7,-40,-5
1763471002.9567165,-6,4,-4,-10,18,0,40,49
1763471002.9796832,-19,-6,-5,-32,-19,-31,-20,-10
1763471002.9868374,-4,3,5,-4,-16,-22,19,-25
1763471003.0089357,-14,-10,-7,24,-5,29,43,-25
1763471003.02624,0,3,1,25,-25,14,-4,17
1763471003.0398104,28,12,11,0,16,-10,-3,95
1763471003.0796137,3,-8,-18,-11,-1,-4,-12,17
1763471003.0848699,-3,4,7,15,-9,-1,-17,-24
1763471003.0991516,-13,-10,-22,-4,4,22,-32,-40
1763471003.1240628,-4,1,10,13,-29,15,2,-5
1763471003.1371639,9,9,15,-23,-5,2,-2,-30
1763471003.159428,0,-5,-1,-16,2,29,-7,-3
1763471003.1824205,13,1,-6,-15,-18,-34,33,4
1763471003.196685,-3,-6,-9,-20,19,-4,-23,-14
1763471003.2349768,-4,-2,11,33,2,18,53,-29
1763471003.2426188,-8,0,1,18,2,-4,4,-12
1763471003.2568674,-23,-8,0,-2,22,-5,-17,-19
1763471003.2793548,1,-4,-3,-13,-1,-1,20,21
1763471003.3023782,-4,2,9,-4,4,8,-13,-36
1763471003.3160264,1,4,13,43,-21,-21,-31,44
1763471003.3242233,0,-4,-6,21,29,4,7,5
1763471003.339649,-3,4,-6,-3,4,-30,2,-25
1763471003.3624115,4,-1,5,16,2,-15,-45,28
1763471003.375972,-15,-7,-13,-17,-40,-1,-1,-32
1763471003.384118,-1,5,5,9,-8,12,6,-23
1763471003.39921,10,-3,-19,30,11,-2,-4,66
1763471003.422394,5,6,5,-15,21,6,6,-19
1763471003.4596334,-16,0,1,12,6,10,17,-1
1763471003.468824,1,0,-11,-18,-22,4,10,-1
1763471003.5063632,28,10,22,-14,-5,11,-4,9
1763471003.5118716,10,-7,-16,-2,-19,5,-2,46
1763471003.5202017,-10,1,-8,-35,33,8,24,67
1763471003.5425546,-10,-6,-4,12,0,-30,-6,-68
1763471003.5564325,-7,-9,-8,-3,-25,-23,-14,-9
1763471003.5644944,3,-1,-6,-7,-13,-33,-9,-42
1763471003.579173,1,-5,10,-30,-26,51,43,-26
1763471003.603075,-2,-3,12,26,-3,-41,-32,-28
1763471003.6162467,1,-2,-8,1,-7,-32,27,31
1763471003.6239917,2,4,12,73,15,19,2,-13
1763471003.6391644,24,-3,-8,2,16,-20,-27,61
1763471003.6624794,4,-3,-11,-44,-12,-14,-39,14
1763471003.6923966,-21,-8,0,22,2,-23,33,-36
1763471003.6993527,-16,-5,-8,-2,4,16,-13,-35
1763471003.721508,1,3,1,10,7,19,-6,-32
1763471003.7295136,-10,-2,-8,3,-2,-19,-46,-29
1763471003.745042,11,12,7,3,3,29,9,14
1763471003.7592704,3,-4,-21,-28,10,26,-4,9
1763471003.782778,-3,5,18,26,1,-6,-17,-52
1763471003.8047926,3,1,6,15,0,-14,8,42
1763471003.8191717,-4,0,-5,-6,1,-1,-8,1
1763471003.8499944,5,2,-4,5,-9,1,3,12
1763471003.865195,13,-3,5,12,3,3,20,8
1763471003.8792074,-23,-1,-5,1,-8,-5,-1,-24
1763471003.903092,8,1,-3,3,-2,-4,1,24
1763471003.9248827,36,-3,-11,-7,-5,-8,19,54
1763471003.9555202,-10,-5,1,0,-23,-10,-23,9
1763471003.9623783,5,-2,0,2,-3,28,4,-2
1763471003.9848495,-2,-1,-3,-15,-7,-7,-11,-2
1763471003.9992425,-11,-5,2,5,9,-3,-2,-15
1763471004.0223677,-15,-7,0,6,6,7,-1,-14
1763471004.0449214,-3,3,0,-3,-9,-2,0,-10
1763471004.0593143,-23,-2,2,6,15,-5,-22,-10
1763471004.0817962,8,3,0,8,16,-6,2,-1
1763471004.1047626,3,-1,3,0,-3,1,19,-1
1763471004.119256,-7,-5,-6,-13,-12,-4,-5,-1
1763471004.1499214,-7,-9,-30,-17,5,-4,-5,-3
1763471004.1650152,4,8,15,5,-7,0,0,2
1763471004.1793993,-2,-3,0,2,3,-3,-3,-3
1763471004.2101111,-3,-1,-1,-3,-17,-4,-4,-4
1763471004.2250223,-3,-2,-8,-12,-12,-3,-2,-1
1763471004.239264,1,1,6,0,1,-2,-2,-2
1763471004.2616618,1,-1,-2,-1,-6,0,0,1
1763471004.2849634,-1,-1,-3,-7,12,3,1,0
1763471004.2995713,-3,5,2,-1,5,-2,0,-1
1763471004.321784,2,1,7,0,-4,-3,-1,1
1763471004.3440678,0,0,-1,6,3,-1,-2,-1
1763471004.3520715,0,0,-3,0,-3,-8,0,2
1763471004.358823,-1,-4,-8,-3,1,10,0,-2
1763471004.367004,-1,-2,-3,-3,-6,-6,-3,-1
1763471004.3816595,-1,-4,2,5,-1,-2,0,1
1763471004.4049897,1,-3,0,4,-2,4,0,1
1763471004.4186623,-1,-9,-5,-8,0,-9,-2,-2
1763471004.4267864,0,0,-2,-1,-2,13,-2,-1
1763471004.4499323,0,6,1,3,0,20,1,0
1763471004.4649394,-2,2,3,2,-4,-19,-2,1
1763471004.47856,-1,0,-2,2,1,-6,-2,0
1763471004.486697,-1,-2,-8,-2,0,-8,-3,-2
1763471004.5017734,0,0,2,1,-3,3,-3,-1
1763471004.5249557,-1,-1,-1,2,1,10,-1,-1
1763471004.538695,0,0,-2,2,-6,-10,-2,-1
1763471004.546945,-1,1,3,-4,-6,2,1,-1
1763471004.5618134,-2,-5,-3,10,0,6,0,-2
1763471004.5849853,0,-1,-1,-6,-1,-3,1,-2
1763471004.6150627,-1,1,-1,-4,1,-1,0,1
1763471004.6218653,-1,1,0,-1,1,0,-1,-2
1763471004.6448658,-1,1,-1,-1,0,-5,-1,0
1763471004.667428,2,-2,-1,-3,-1,-3,-1,0
1763471004.6818078,-2,-1,-1,-1,-1,0,0,-1
1763471004.7050414,-2,-3,-1,-1,-1,1,-1,-1
1763471004.7278767,0,-1,2,1,0,-2,-2,0
1763471004.7417147,0,-1,-1,-2,0,-2,-1,-3
1763471004.7648344,0,0,2,6,1,-2,0,0
1763471004.7873914,0,0,-1,-5,-3,-2,-2,0
1763471004.8016114,-2,-2,0,-2,-2,0,-2,-2
1763471004.8249376,-1,-1,-1,-3,-2,-1,-1,-2
1763471004.847445,-2,1,-4,-2,-1,0,1,-1
1763471004.8620672,-1,-2,-1,-1,-1,-1,-1,-1
1763471004.8841834,-2,-1,-2,-1,-1,0,1,-1
1763471004.89179,-1,-2,2,9,1,0,0,-1
1763471004.9077122,-2,-1,-3,-5,-2,-2,-2,1
1763471004.9217467,-2,-1,-1,-3,-2,-1,-1,-2
1763471004.9449198,1,0,0,0,0,-2,-1,-2
1763471004.9675548,-1,-1,-6,-1,0,-1,-2,0
1763471004.981723,0,-1,-1,-2,-1,0,-2,-2
1763471005.0048041,0,0,0,0,-1,0,-1,-1
1763471005.0275345,-1,0,0,-2,-1,-2,-2,1
1763471005.0419235,0,1,0,-3,-1,-2,1,0
1763471005.0649803,1,-1,-5,-3,0,0,-1,-1
1763471005.0872724,-2,0,2,2,-5,-2,-1,-1
1763471005.1016896,-1,-1,0,7,2,0,-1,0
1763471005.1249533,-2,-1,-1,-2,-1,-1,-1,-1
1763471005.1473641,-2,-3,-1,-3,-1,-2,-1,-1
1763471005.161529,-1,-2,-3,-4,1,1,0,0
1763471005.1692412,0,0,-1,0,1,-2,1,-1
1763471005.1850166,-2,0,-3,1,-2,-1,-1,-2
1763471005.207547,-1,-3,-11,-11,-2,-2,0,0
1763471005.2217078,-1,-2,7,3,-3,-3,1,0
1763471005.2452657,-1,-1,0,5,-1,-2,-3,-2
1763471005.2676105,-1,-1,2,12,0,-4,-2,0
1763471005.2813191,0,-1,0,-5,-1,1,-1,0
1763471005.2901554,-1,-1,2,3,0,0,-2,1
1763471005.3049405,0,-1,2,0,-1,-1,-1,-2
1763471005.327706,-2,-1,0,0,-2,-1,-1,-1
1763471005.3412733,-1,0,-3,-2,1,1,0,-1
1763471005.350511,-1,-1,2,-1,-2,-2,-1,-1
1763471005.3636425,-1,-1,-2,-7,0,1,-1,-2
1763471005.3724406,-1,-5,-9,-1,-2,-2,-1,0
1763471005.3947725,-2,0,0,1,-1,-1,0,-2
1763471005.401035,-1,-3,-2,-3,1,-1,-1,0
1763471005.4099188,-1,0,2,-2,-2,-3,-1,-3
1763471005.4248233,-2,-2,0,11,1,0,-1,1
1763471005.447386,-1,1,2,-2,0,-1,0,-1
1763471005.4610846,0,-2,-4,-10,-1,-2,-1,0
1763471005.4699678,-1,1,0,-1,-1,0,0,0
1763471005.484895,0,-2,-1,-10,-2,-1,-2,0
1763471005.5073645,1,1,1,0,-6,0,-2,-1
1763471005.5211499,0,-1,-1,3,-1,-3,-2,-2
1763471005.5303693,0,0,3,0,-2,0,-1,-1
1763471005.552501,-2,-3,-3,0,0,1,-1,-1
1763471005.567566,0,0,-1,-1,-2,-1,0,-1
1763471005.581635,0,0,0,-1,-2,-1,-2,-1
1763471005.5903912,-2,2,4,1,0,-1,-2,-2
1763471005.605205,-2,-1,-3,-3,0,1,-2,1
1763471005.627599,-2,-1,1,3,0,1,-1,-3
1763471005.6499596,-1,-1,-1,-1,-2,-2,-1,0
1763471005.663695,-1,0,-1,-2,-1,-1,-1,-1
1763471005.6724713,-1,-3,-1,-2,-1,-2,-1,0
1763471005.6873534,-3,-2,0,0,-2,-1,0,-3
1763471005.7099373,-3,-1,-3,-2,-6,-5,-1,0
1763471005.7248764,1,0,0,-9,-2,-1,0,0
1763471005.747871,0,-2,-4,1,2,3,0,-2
1763471005.7701705,1,2,0,1,-1,-1,0,-1
1763471005.7842898,-2,-2,-1,1,2,-1,0,0
1763471005.7911134,-1,-2,-1,-1,-2,1,-1,-1
1763471005.8074152,-2,-1,-4,-4,0,3,0,-1
1763471005.8301613,-1,-3,-3,0,1,0,0,0
1763471005.8444178,0,-2,1,-1,-1,-2,-2,0
1763471005.8511617,-1,-2,-1,-2,-1,-2,-2,-2
1763471005.8673944,-2,-4,-1,0,0,-1,-1,1
1763471005.8898897,0,-1,-2,0,0,-3,-1,-1
1763471005.9041395,-1,-1,1,9,0,-3,-2,-2
1763471005.9110441,1,-2,2,6,-1,-1,-2,0
1763471005.927429,-1,-2,2,-1,-8,-4,2,-2
1763471005.9499617,-1,-1,-2,-5,0,-1,-2,-1
1763471005.964225,-1,0,0,-2,0,-1,-3,-1
1763471005.971232,0,-3,-4,11,0,-1,-2,0
1763471005.9873435,-1,-1,1,-2,-3,1,-1,0
1763471006.0101585,0,-1,-1,-3,-1,-2,-1,-1
1763471006.0246074,-1,-1,0,0,0,-1,-1,0
1763471006.0312984,-2,-3,-4,-3,0,-2,-1,-1
1763471006.047681,-2,-2,-5,-4,-1,0,1,0
1763471006.0700362,0,-1,-1,-1,1,2,0,0
1763471006.0843623,0,0,2,-2,0,1,-1,-2
1763471006.0914934,0,-2,-7,-10,-1,-3,1,-1
1763471006.1150007,-2,0,2,3,-1,-1,-2,-1
1763471006.1299043,-1,-1,-3,-2,-1,-2,0,1
1763471006.1434915,-1,-1,0,-6,-1,-1,-2,-1
1763471006.15242,0,-1,0,0,-1,-2,-3,1
1763471006.1675346,-1,-1,-2,1,-2,-2,-1,-1
1763471006.1898267,0,-1,-3,-1,0,-2,-2,-1
1763471006.2034981,0,-3,-4,1,1,0,0,-1
1763471006.212885,0,-3,-1,2,1,-1,0,-1
1763471006.2280228,-3,-1,-2,0,0,0,-1,-2
1763471006.2499242,0,1,2,1,-2,-2,-2,-2
1763471006.263616,0,-1,-5,0,-1,2,-2,1
1763471006.2800615,0,0,-5,-5,0,-2,-1,0
1763471006.2874517,0,-2,0,-3,-1,-2,0,-1
1763471006.3096561,-1,-1,-2,-3,-1,0,-1,-1
1763471006.3175843,0,1,4,8,0,-1,-1,-1
1763471006.323465,-1,-2,-1,2,-3,-1,0,-2
1763471006.3324363,-1,-2,-4,7,-1,0,-2,-1
1763471006.3473268,-1,-1,2,-1,0,-1,0,-1
1763471006.3698678,0,-1,1,1,-1,-2,-1,-1
1763471006.383922,-2,-1,-7,-9,0,1,0,-2
1763471006.3925276,-3,-1,1,-2,-1,0,-1,0
1763471006.4073756,-1,-1,1,2,-1,-2,-2,-1
1763471006.4298227,-1,-1,-1,-6,0,0,0,0
1763471006.443488,0,0,1,2,-2,-1,-1,-2
1763471006.4524915,-1,0,-2,-1,0,-2,-1,1
1763471006.4673831,-1,-1,2,4,0,0,-2,1
1763471006.4898415,0,0,1,-2,-2,-1,-1,-1
1763471006.5036721,-2,-2,-3,-3,1,-2,0,-1
1763471006.5124252,-1,0,-2,-5,0,0,-1,-2
1763471006.527538,-1,-1,-1,1,-2,0,-2,-1
1763471006.5574028,-2,-1,0,1,-1,-1,1,-2
1763471006.5722907,-2,-1,-5,-5,-3,-3,-1,0
1763471006.5873961,0,0,-1,2,0,0,0,-1
1763471006.617341,-2,-2,-2,0,-2,-2,-1,-1
1763471006.6323473,-2,-3,-4,2,1,-1,-1,0
1763471006.6467745,0,0,1,0,-1,-2,0,-2
1763471006.6535687,-1,-3,-1,-1,0,-1,0,-1
1763471006.6700234,-2,0,4,3,-2,1,0,-3
1763471006.6925719,-1,-3,-5,-2,-3,-2,-1,-2
1763471006.706893,-1,-1,0,0,-1,-1,0,1
1763471006.7135422,-2,-4,-5,1,-2,-2,-1,-2
1763471006.7300923,1,-2,-1,0,-1,0,-2,-2
1763471006.7525315,-2,0,-1,-6,-1,-2,0,1
1763471006.767003,-2,-1,0,-4,0,-2,-1,-1
1763471006.7737305,0,-1,1,3,0,0,0,-1
1763471006.790079,0,-1,1,3,-2,0,-2,-1
1763471006.8127027,-2,0,1,2,-1,-1,0,-1
1763471006.8268173,-1,0,-4,1,-2,-1,-1,-1
1763471006.8336954,0,-1,-2,0,-1,-1,0,-1
1763471006.8501225,-2,-2,-11,-12,-1,-1,0,0
1763471006.872341,0,0,-1,1,1,0,-1,-2
1763471006.8868403,1,0,3,2,0,-2,-1,0
1763471006.893452,-3,-7,-11,-16,-2,-2,-2,-2
1763471006.9098487,1,6,4,4,8,0,-2,1
1763471006.9324896,-3,-6,-2,-2,-9,-3,0,-1
1763471006.9461248,2,16,16,14,30,1,0,0
1763471006.9551032,-6,-18,-16,11,-4,-3,-3,-5
1763471006.969858,0,-1,5,-15,-22,1,0,0
1763471006.9924388,-1,-15,2,-11,-22,-8,-2,1
1763471007.0061479,-8,-17,-42,-11,-12,-13,-6,-5
1763471007.0150948,-4,13,-19,2,-2,-9,-6,-8
1763471007.0306346,3,11,6,3,-18,2,0,1
1763471007.0515447,-4,-22,8,40,45,12,0,-1
1763471007.060153,11,25,31,-12,-21,-9,6,7
1763471007.0659654,-3,23,-27,-53,-32,-2,3,0
1763471007.074947,-4,-14,-23,3,-7,5,-1,-2
1763471007.090071,7,14,27,-6,-1,11,3,0
1763471007.1127853,1,8,-1,15,23,-1,0,1
1763471007.1260064,-6,-22,-3,9,19,15,1,0
1763471007.1349776,-1,4,7,11,-5,-12,3,-3
1763471007.1501553,-3,-9,-1,2,-18,-11,-7,-5
1763471007.1724918,-2,-7,-13,-9,-1,-13,-3,-2
1763471007.1860874,-2,0,-2,3,11,18,-1,-1
1763471007.195133,1,0,-1,-2,1,-4,1,3
1763471007.2101545,1,-1,-4,-4,-11,-1,-1,-10
1763471007.2325904,0,6,6,8,19,24,5,2
1763471007.2461488,5,4,9,16,-7,-23,6,31
1763471007.2552204,-5,-9,-17,13,-20,-31,39,35
1763471007.269915,3,11,22,45,-7,25,84,-73
1763471007.2924445,-7,-9,-37,-60,-1,-34,-98,-15
1763471007.306042,2,2,29,66,94,59,32,15
1763471007.3149586,8,-17,-20,-8,26,-6,-26,-10
1763471007.3373668,-32,-3,3,7,-15,-35,-31,-9
1763471007.3524928,-11,-16,-8,4,-45,-11,-2,-51
1763471007.366307,-15,-17,-47,-45,-82,-32,2,14
1763471007.3751118,-22,-16,-20,-12,22,-21,2,-27
1763471007.389251,8,3,-3,-27,18,-22,63,13
1763471007.3959591,11,-4,-8,-43,-58,-31,39,16
1763471007.4124713,35,8,6,-15,-2,-30,-35,54
1763471007.4423444,6,5,-9,25,-16,5,24,49
1763471007.4492805,-7,-3,16,-57,2,26,-33,-12
1763471007.4561512,-4,-5,-6,74,40,44,-16,-17
1763471007.4723833,4,-2,-24,-40,11,23,-50,-29
1763471007.4860797,22,5,-16,20,22,37,-39,0
1763471007.5025258,15,-13,-16,-32,0,-33,3,1
1763471007.5089736,-2,-4,22,-11,-51,-63,9,-52
1763471007.517505,-31,-21,-56,-12,-36,29,-44,-34
1763471007.5324411,-23,-2,-4,1,-42,-40,7,-44
1763471007.5548003,-48,-24,11,68,21,-8,52,-34
1763471007.562977,14,6,23,92,27,15,23,43
1763471007.569382,2,15,17,-9,16,-12,21,-23
1763471007.5760584,8,-4,-12,-8,14,-55,-32,-8
1763471007.592792,-9,0,15,24,25,0,-32,17
1763471007.615065,-18,0,18,-9,15,10,-18,-66
1763471007.6293995,31,11,5,1,28,0,-18,-16
1763471007.63633,-19,-27,-47,-47,27,-36,2,-60
1763471007.6523457,29,14,9,90,70,10,-43,20
1763471007.6749058,-10,-16,-9,8,-21,-30,41,21
1763471007.6885312,11,-25,-49,-53,-56,-22,30,114
1763471007.69748,-12,-2,21,-76,-23,-3,-7,-39
1763471007.7124414,5,9,-23,-50,27,28,-5,-74
1763471007.734965,-14,17,21,-22,-19,-17,87,39
1763471007.7507887,20,13,39,-9,-29,16,-49,-6
1763471007.756363,15,7,-27,-78,35,25,18,95
1763471007.7799668,7,-8,-15,12,-18,16,22,14
1763471007.794981,9,9,4,-71,-34,-9,-26,-13
1763471007.8174002,-28,-4,8,44,18,7,32,-21
1763471007.8324876,1,0,5,11,7,48,-40,-43
1763471007.8548853,12,-19,-48,-1,-8,2,-28,14
1763471007.86919,5,-10,6,-23,3,12,-20,29
1763471007.8930883,24,-3,-26,-31,-15,-32,5,53
1763471007.9149265,18,11,24,-5,18,67,52,4
1763471007.9448047,-4,-10,-22,-33,17,-6,16,-22
1763471007.952299,-15,-7,-31,30,22,7,50,-19
1763471007.9749687,-12,-7,-21,18,-28,-65,-33,26
1763471008.0049956,-6,-1,19,-16,44,-10,-4,7
1763471008.0128136,3,7,11,8,-20,22,-34,57
1763471008.049089,-5,2,3,-18,-7,-9,-10,-45
1763471008.0596735,20,13,-1,28,-40,11,66,30
1763471008.0732896,-13,-2,10,22,23,2,-12,32
1763471008.0950022,11,4,-16,-3,12,-12,-13,-45
1763471008.1174467,18,2,10,8,6,39,7,10
1763471008.1325269,-3,5,20,-9,-31,10,-8,-64
1763471008.1623697,15,5,6,13,3,38,25,24
1763471008.168461,-17,-5,-4,-33,-5,-70,-53,-69
1763471008.177595,-2,-19,-18,25,-15,20,8,-35
1763471008.192623,-3,-1,-1,-42,-20,-11,10,2
1763471008.2151067,-11,-10,-17,14,-12,-34,-12,-16
1763471008.2286718,-4,-5,-5,-6,7,1,-3,-31
1763471008.2376826,-25,-11,-5,12,39,29,-12,-6
1763471008.252383,-11,-2,3,-25,1,-63,-28,4
1763471008.2823873,19,4,-5,20,22,29,-4,-19
1763471008.2885082,4,-9,-6,-49,19,4,16,6
1763471008.297488,2,14,27,-7,-2,-48,-30,-51
1763471008.312955,6,3,-3,17,-27,-20,8,8
1763471008.335286,-12,-4,-6,64,27,-19,-34,-75
1763471008.348678,-2,-1,8,25,-31,48,5,-24
1763471008.3576484,13,1,24,81,-15,-19,-19,53
1763471008.3723934,-6,0,5,10,58,112,35,-31
1763471008.3948436,-14,-10,-11,3,-71,-105,4,-18
1763471008.4086206,2,-4,4,0,-15,-12,1,0
1763471008.4175417,-16,-26,-27,-32,-29,-43,-37,-41
1763471008.4324281,6,9,12,-17,-29,52,88,47
1763471008.454944,-1,-1,-15,-65,31,49,6,72
1763471008.4778597,6,0,-16,-97,-8,-37,-24,27
1763471008.4999523,19,3,7,-9,-10,-26,-18,81
1763471008.5149558,-4,9,18,27,53,-2,28,-39
1763471008.5374055,-9,-10,-14,41,-8,-3,-34,10
1763471008.560044,12,-6,-19,21,-25,-7,-12,-24
1763471008.5748982,33,27,21,-18,-45,-38,-1,66
1763471008.5973678,-20,-17,-20,20,22,50,-12,-12
1763471008.6117609,1,-9,-24,-3,-18,-50,-52,-26
1763471008.6184785,-6,-4,-18,30,11,54,-13,25
1763471008.6350067,-9,-15,-20,76,-17,2,-9,14
1763471008.657514,-8,-7,0,13,-2,-26,0,-28
1763471008.6717834,-1,3,22,5,25,-5,-21,-34
1763471008.6791294,12,5,2,25,55,26,-14,50
1763471008.702548,-7,3,3,1,3,50,-11,-36
1763471008.717404,-13,-2,6,-65,-16,-83,13,-47
1763471008.7318408,9,1,12,-21,-15,-28,-20,25
1763471008.7385192,-26,-5,18,22,24,11,-26,6
1763471008.7696378,12,4,3,38,12,-17,-17,16
1763471008.7780359,6,9,-9,-76,-4,7,10,-19
1763471008.7920241,5,5,2,46,15,-39,8,-6
1763471008.798759,-6,-6,24,-37,-16,-26,0,-46
1763471008.8154867,2,-5,-14,-16,1,31,28,63
1763471008.8374517,-4,-10,-23,-83,12,48,30,29
1763471008.8517513,-8,7,31,68,7,11,-38,-55
1763471008.8586106,7,-18,-20,-14,-18,-66,-38,9
1763471008.8748507,15,5,-3,-6,8,46,35,-20
1763471008.897414,-21,-6,-5,19,-22,-19,-15,-41
1763471008.9116976,-4,-5,-14,-15,35,55,8,-74
1763471008.9184725,18,10,11,6,20,59,-25,-27
1763471008.9355369,-3,-3,-24,-19,-24,3,-7,-4
1763471008.957736,-4,-6,-4,-56,-38,-31,-17,-6
1763471008.9713671,19,8,-5,-42,-9,-32,84,103
1763471008.9801795,-7,-1,-7,-5,-22,74,39,110
1763471009.0024471,1,9,6,18,51,74,-31,-31
1763471009.017542,-2,-10,0,13,7,-57,24,3
1763471009.0313876,-7,-10,-20,55,22,-23,-25,-33
1763471009.0401256,-14,-7,3,-28,9,-18,9,42
1763471009.0560422,-23,1,1,-46,-6,-65,-35,14
1763471009.077473,17,16,18,0,10,7,-28,15
1763471009.0914886,-38,-3,5,-24,-22,-29,-61,-62
1763471009.1004336,-6,12,-2,-21,34,66,13,75
1763471009.115094,25,8,21,31,53,-16,-28,-1
1763471009.137333,-15,-2,15,72,3,9,-27,-1
1763471009.1511648,1,-5,2,-36,-43,1,49,-11
1763471009.1677406,-26,5,8,-2,18,1,-12,21
1763471009.1750526,15,0,-6,-3,-15,0,0,60
1763471009.1974819,-19,-10,-41,-84,-12,8,55,0
1763471009.2113917,9,-22,-47,-30,-33,-23,90,-24
1763471009.2201188,-12,-15,-27,-19,-18,-54,-78,-36
1763471009.235171,7,8,18,-44,-13,-88,-45,-36
1763471009.25752,18,6,4,28,-10,47,2,127
1763471009.2710435,-21,-6,-17,-9,30,50,-29,6
1763471009.2799647,8,15,36,21,53,34,-43,41
1763471009.2948475,8,4,-16,1,3,17,-20,4
1763471009.3174856,11,-9,-13,-12,78,110,-11,-43
1763471009.331175,-3,2,21,46,15,-49,-2,-48
1763471009.340098,-12,-2,-39,-5,20,-56,-7,-30
1763471009.354913,-26,-17,6,80,9,-6,-11,-25
1763471009.385096,17,11,2,21,-38,-34,-41,26
1763471009.4000523,17,0,10,-13,-51,18,-5,-33
1763471009.4149776,-12,-2,11,0,0,-11,28,94
1763471009.4450543,-32,-4,-6,-39,-22,58,27,47
1763471009.4598463,-10,-13,1,-60,-21,-48,-15,-60
1763471009.4735203,13,15,22,20,10,6,-8,35
1763471009.4825559,-2,-8,-1,17,-26,64,-4,-27
1763471009.4973893,0,7,11,-10,-39,4,51,15
1763471009.5198805,10,6,10,-15,-39,-42,-26,-42
1763471009.5342307,2,0,3,18,25,-47,-18,-21
1763471009.5410829,-18,-13,5,-12,8,-35,29,-9
1763471009.5574968,17,3,-5,-5,-12,-23,-19,-1
1763471009.5799015,-6,-7,-15,29,25,-5,26,3
1763471009.5942342,0,-3,-3,-5,14,43,32,-54
1763471009.6012838,-5,-6,4,52,35,90,-36,-6
1763471009.6174154,3,-4,-12,11,-2,-11,-49,6
1763471009.6474187,9,7,11,23,35,34,-9,5
1763471009.6542695,-5,3,1,10,34,-34,10,-36
1763471009.661168,-11,4,-5,-23,-40,-28,7,-58
1763471009.6774168,6,2,8,12,51,38,10,27
1763471009.6998959,3,4,-4,-6,-36,-8,-29,-9
1763471009.7142172,14,-2,2,-3,-33,-36,19,14
1763471009.7212753,9,7,2,-20,0,16,12,-3
1763471009.7375271,-14,3,3,-14,-4,-14,-38,0
1763471009.7598755,-2,-5,1,5,-48,14,76,33
1763471009.7743475,-8,-5,1,-26,38,8,-16,-18
1763471009.781213,7,1,1,15,-12,-43,-6,38
1763471009.7974172,-6,-21,-21,31,6,32,-2,13
1763471009.819893,10,1,6,-1,-37,-26,-1,-44
1763471009.8344293,-15,0,2,-20,-20,-5,20,-19
1763471009.8412511,-32,-4,1,22,16,1,-4,7
1763471009.8575566,1,4,13,41,8,-12,-14,0
1763471009.8790674,-7,-2,3,2,2,12,-9,-4
1763471009.887617,6,-5,8,22,3,-6,-3,25
1763471009.893535,4,0,2,-5,9,-11,-15,-23
1763471009.902615,-2,-11,7,-33,-91,16,5,43
1763471009.9175618,-3,-5,14,2,5,12,1,35
1763471009.9400792,1,-2,-7,-1,34,36,-13,9
1763471009.9537168,4,-11,-25,16,10,-21,36,53
1763471009.962594,-14,-6,-11,6,-15,-42,16,-14
1763471009.9773405,-6,5,5,-50,-3,50,12,-36
1763471010.0004334,1,0,-5,-41,-71,-57,-11,-22
1763471010.0137763,-2,-5,-13,-18,-15,19,-35,21
1763471010.0226657,3,0,10,25,-39,-4,-1,-9
1763471010.0373952,-2,-3,-15,38,3,13,7,42
1763471010.0599616,14,6,5,-2,0,-43,-17,56
1763471010.0738044,-13,-12,-22,-74,-15,22,23,-39
1763471010.0903213,-18,-10,-17,-22,-27,-17,-41,-25
1763471010.1125376,15,6,-9,41,59,-5,-27,-34
1763471010.1199343,-11,2,3,21,-8,-19,-20,-16
1763471010.1336093,14,9,15,10,-27,31,44,1
1763471010.1425767,-18,-18,-33,-4,-11,19,6,-61
1763471010.1574247,13,3,-1,-17,9,-20,19,-11
1763471010.1799653,-17,-9,-5,11,7,-21,-5,-52
1763471010.1940064,-6,0,13,-35,17,-18,6,27
1763471010.2026277,9,-7,-4,49,-14,-29,-46,10
1763471010.2175949,-9,-1,-9,-62,3,7,-14,-29
1763471010.2400913,-11,-6,12,92,8,-13,13,-39
1763471010.2535682,0,-4,-18,-26,14,34,-18,11
1763471010.2632804,-3,-5,2,27,9,-34,-15,30
1763471010.2774124,1,5,12,10,-27,52,9,-48
1763471010.3000116,-11,-2,13,9,-25,-33,-5,-16
1763471010.3136718,1,3,7,4,-11,31,-3,87
1763471010.322512,4,-4,0,-9,-8,-3,-30,10
1763471010.3374565,6,-4,1,4,5,26,-2,4
1763471010.3599598,17,1,-1,-4,29,-21,-25,18
1763471010.3824482,14,2,-20,-22,-6,-62,-13,2
1763471010.397488,6,3,8,0,-18,-6,61,73
1763471010.419875,-10,-8,2,26,43,-13,-8,-42
1763471010.4425502,-13,-4,-11,5,-55,-7,-9,-47
1763471010.4574835,-12,-10,-29,-1,6,38,-2,-10
1763471010.480015,1,8,8,-16,-16,-10,4,-5
1763471010.5026162,-8,7,17,-24,-21,-11,-34,25
1763471010.5169897,10,-13,-20,11,6,15,1,14
1763471010.523725,5,-8,-6,12,-15,22,5,16
1763471010.5399885,-17,1,13,31,46,-5,7,-27
1763471010.562474,2,2,13,-6,1,-19,22,20
1763471010.5767367,9,7,11,6,34,31,34,-17
1763471010.5835876,-14,3,6,-37,3,8,-16,-23
1763471010.6151447,-10,-10,-6,-13,10,4,-18,0
1763471010.6226203,20,6,2,17,8,6,5,51
1763471010.6367464,7,-3,-12,-33,-69,-50,-19,13
1763471010.6435077,-15,1,8,-6,-26,54,-3,50
1763471010.667511,-7,-4,-20,13,10,-2,-3,-20
1763471010.6825562,-1,-3,-17,-2,-4,54,32,-11
1763471010.6967847,-6,-18,-18,-53,12,17,-7,-6
1763471010.7207966,-4,-12,-8,-5,-18,-40,-14,90
1763471010.7423708,-10,6,19,43,58,26,4,-13
1763471010.7568867,1,-2,2,6,-21,-45,0,-28
1763471010.763792,-3,-2,-5,-48,-8,3,18,-37
1763471010.779891,5,2,-4,35,-15,-36,-25,-29
1763471010.8024251,-22,-4,10,12,10,-20,14,-7
1763471010.8167903,2,-4,-5,-4,-25,-29,-1,13
1763471010.8236358,-15,3,17,21,15,47,21,-48
1763471010.8399503,-2,-3,-11,-33,1,-8,-8,-36
1763471010.862731,6,1,2,22,6,-25,-34,4
1763471010.876109,11,4,6,-5,-9,-38,10,13
1763471010.8850937,-7,-5,-1,20,-6,-25,19,11
1763471010.9074087,-5,-2,-14,-11,-4,-17,1,32
1763471010.9226072,-6,3,19,0,-12,22,-26,-20
1763471010.9360085,13,3,-2,-30,29,64,26,111
1763471010.9451761,1,-8,-19,25,11,14,-14,6
1763471010.9600441,-9,-8,-1,-28,-3,-4,-1,-29
1763471010.9830358,0,-5,-2,33,-2,52,10,63
1763471010.9961398,-8,2,6,19,-11,-5,-8,-86
1763471011.0051346,25,2,-8,-23,-28,-19,-3,12
1763471011.0200279,-27,4,17,20,-23,-3,-14,21
1763471011.0503109,-3,1,5,6,7,29,31,-82
1763471011.0560918,-3,1,-1,28,2,0,-5,2
1763471011.0651758,7,2,-3,-11,25,-19,22,1
1763471011.0953593,19,9,3,-20,-12,19,-2,-3
1763471011.1101367,-24,-16,-37,-17,2,-38,-4,-12
1763471011.1169372,-6,-7,4,-40,9,-28,-14,-19
1763471011.1255355,-11,-6,-12,-19,-18,-10,-27,-34
1763471011.1399393,11,8,11,-31,-10,12,32,-14
1763471011.1701136,15,-1,1,-65,-10,-31,17,89
1763471011.1761692,5,-1,-3,52,3,-10,-44,-10
1763471011.185075,-7,1,5,-40,0,-4,6,-18
1763471011.2076075,-10,-6,-17,32,-11,25,18,-5
1763471011.2226057,2,1,-5,-24,-40,-17,59,-22
1763471011.2361877,-2,-3,8,81,18,11,-61,-7
1763471011.2620826,-8,10,24,-14,-10,17,7,11
1763471011.2825353,-1,-2,4,17,37,9,-15,66
1763471011.3121896,-2,-10,-36,-39,3,12,2,-21
1763471011.3205612,-7,-6,-8,9,-33,-18,-43,0
1763471011.34262,1,2,-4,8,12,57,-2,-15
1763471011.3725123,33,-2,-9,5,18,11,30,-24
1763471011.3799174,-14,-1,9,2,-20,-45,-22,4
1763471011.402436,-8,-7,-19,-13,22,-12,-9,11
1763471011.424224,-7,-6,-9,-44,-23,-50,4,48
1763471011.43253,6,-2,0,-3,2,-4,4,14
1763471011.4402742,-8,7,-13,-47,4,60,3,-9
1763471011.4462807,-11,6,7,11,23,-4,11,-14
1763471011.463093,-3,2,2,29,8,-32,-3,-7
1763471011.4850209,-3,2,21,22,-20,-10,30,11
1763471011.4993312,8,5,11,-10,8,-7,-28,-20
1763471011.5061233,-3,-10,-17,6,12,29,9,16
1763471011.5374048,18,6,16,10,-26,-19,-2,12
1763471011.543953,-7,-4,4,-5,-37,10,49,-19
1763471011.552553,19,9,8,-2,-30,-21,6,-12
1763471011.559218,2,3,5,10,8,-44,17,10
1763471011.5661166,15,11,17,0,-17,-15,-5,50
1763471011.5900202,-14,-12,-21,35,6,-11,-43,-26
1763471011.6049886,16,-5,2,-26,-18,-10,-10,-5
1763471011.6192694,-5,-7,-15,-11,-21,-2,-16,-8
1763471011.6260426,-8,-4,-5,-2,18,-34,9,5
1763471011.6425068,-15,-6,-25,0,-40,-22,17,20
1763471011.664961,14,6,-8,-17,7,-2,-20,-34
1763471011.6792278,-25,-5,4,-6,28,15,-6,-28
1763471011.686074,4,-5,-10,-29,3,18,-14,8
1763471011.7026746,-8,5,22,32,-6,35,47,-5
1763471011.7249138,-13,9,36,9,15,-16,-22,-53
1763471011.739401,-8,-11,-25,-23,-39,9,-38,2
1763471011.7535655,-2,-1,-2,-23,2,1,-22,-22
1763471011.7624876,11,7,26,15,17,38,-32,32
1763471011.7851992,4,-1,-12,-15,16,16,33,4
1763471011.7986653,4,1,6,1,10,-13,-33,-18
1763471011.8150995,1,5,15,11,9,32,50,13
1763471011.830104,-1,1,9,14,-20,-24,42,-1
1763471011.8449771,-15,-3,-4,-5,16,22,-2,-48
1763471011.8585048,10,1,5,11,1,-18,-8,46
1763471011.867536,-3,4,0,-20,26,26,16,3
1763471011.882505,-1,-10,-9,63,25,18,-4,6
1763471011.9050226,5,9,-5,-61,5,-17,-11,22
1763471011.9438367,8,-3,-8,-23,9,5,5,35
1763471011.9501023,0,7,3,6,2,28,-3,13
1763471011.964916,11,9,4,20,-2,7,26,-18
1763471011.978614,-9,-10,-13,14,-4,-13,-24,-27
1763471011.987527,4,6,4,5,13,12,10,-9
1763471012.0024016,-4,-5,-10,-10,-26,-11,-11,19
1763471012.0407317,3,2,3,-10,-1,5,0,-11
1763471012.053657,10,-6,3,5,-8,-5,2,4
1763471012.062448,12,0,1,3,-14,-2,1,13
1763471012.0925727,0,3,0,-9,8,-4,-8,-9
1763471012.0988054,-2,-11,-4,-2,2,2,2,9
1763471012.1077526,-22,0,0,2,-13,-8,-12,-7
1763471012.1233943,-2,1,3,0,9,0,-11,-2
1763471012.1288052,15,1,3,-2,0,-1,2,5
1763471012.1454036,7,-10,-8,-3,1,1,1,-9
1763471012.1675484,5,3,2,2,32,1,53,-5
1763471012.181824,-9,2,2,-30,-33,-9,-26,-6
1763471012.2059124,-5,-8,0,9,18,4,48,17
1763471012.219406,-1,-3,-7,-25,-11,1,-2,-26
1763471012.2279994,9,5,1,-13,-35,-4,22,-9
1763471012.242115,-6,4,3,30,22,-1,-32,13
1763471012.256388,-11,-6,0,3,-12,1,-8,14
1763471012.2651007,-2,0,-1,-15,-8,0,19,13
1763471012.2877212,-1,-8,-14,-4,-3,0,9,7
1763471012.310014,0,4,6,2,9,1,1,11
1763471012.325075,4,-1,0,-3,-12,1,9,5
1763471012.3476949,0,5,5,3,-4,12,4,5
1763471012.3700166,1,-4,1,-2,-5,-5,2,2
1763471012.384921,-3,-3,-13,-14,-5,-1,1,0
1763471012.4074602,-1,-1,6,8,6,-6,0,3
1763471012.4222305,3,5,4,9,1,-5,-1,1
1763471012.4286387,-11,-19,-14,-17,4,-5,-2,-3
1763471012.4449522,-2,-7,-3,16,-14,-26,-1,1
1763471012.4988155,-5,-5,-7,-5,6,-4,-3,-2
1763471012.5069838,-1,-1,-3,4,5,1,-4,0
1763471012.5350895,-2,-1,-1,3,11,4,-2,1
1763471012.5411525,-2,1,2,3,3,-7,2,-1
1763471012.550145,-1,-2,-2,1,-2,-31,-8,-1
1763471012.5649714,1,1,1,-2,-3,-6,-3,-2
1763471012.5874746,-1,0,4,1,-2,-32,-5,0
1763471012.6011548,-1,-5,-3,5,2,7,2,-1
1763471012.610122,0,-1,2,4,2,-12,-2,0
1763471012.6249557,-1,0,0,-4,-3,-10,-2,-1
1763471012.6474435,0,1,0,3,5,10,-3,0
1763471012.6611927,0,1,-2,-6,-3,7,-1,-1
1763471012.6700437,-1,-1,-2,0,-1,-5,-1,-2
1763471012.6849542,0,-1,0,-3,-3,10,0,1
1763471012.7074978,0,-1,0,-1,0,5,1,0
1763471012.721203,0,0,0,-4,-2,0,-1,-1
1763471012.7300687,-1,-1,-2,-2,-3,-5,0,-2
1763471012.752511,1,-1,0,-1,0,7,3,10
1763471012.7674754,-1,-2,-2,-1,2,-2,-2,-6
1763471012.781171,-1,-1,-2,3,-1,2,-1,-4
1763471012.790081,0,2,0,-3,-5,-1,0,-1
1763471012.8049078,0,4,4,18,9,4,1,0
1763471012.8274221,1,-2,-2,-15,-4,-2,3,13
1763471012.8410332,-1,2,0,-4,-2,-1,-3,-8
1763471012.8500104,0,-2,-1,0,-1,3,-2,2
1763471012.8650355,0,-2,-2,-1,-5,0,0,-4
1763471012.8875828,-2,-2,-1,-4,-1,-2,-2,-1
1763471012.9013007,-2,-3,-3,-2,-2,-4,-2,-4
1763471012.910042,-2,-2,-1,-3,-4,-1,0,2
1763471012.9249163,-2,-3,-2,-1,-1,-1,-2,-4
1763471012.947652,-2,0,-2,-1,-2,0,0,-1
1763471012.970198,0,0,-1,1,-1,-1,-1,-2
1763471012.9851403,-2,-2,0,-6,-2,-1,-1,0
1763471013.008055,-1,1,1,4,-4,-1,-1,-1
1763471013.021465,-1,-1,-1,1,4,18,2,-1
1763471013.030388,-1,1,-1,-5,-1,5,-1,-1
1763471013.0527031,0,-2,-1,1,0,-9,-3,-1
1763471013.0679505,-3,-1,0,-7,-2,0,-1,0
1763471013.0813043,1,-1,-1,1,0,-3,-2,-1
1763471013.0904684,-1,-2,-1,-1,-1,-1,0,0
1763471013.1051135,0,-1,-1,-4,-4,-3,0,-1
1763471013.1276503,-1,-2,-3,-9,-2,-8,-2,-2
1763471013.1412225,0,1,0,-4,-3,-2,-1,-2
1763471013.1503859,0,0,0,3,1,-3,-3,0
1763471013.1651957,-1,-2,-2,6,2,-3,-1,-3
1763471013.1874483,-2,-1,0,3,3,16,0,-1
1763471013.2092566,-1,-2,0,0,-1,-6,0,-1
1763471013.2185674,1,1,-2,-2,-4,3,1,-1
1763471013.2255123,-1,-2,-2,-3,-8,-2,0,-2
1763471013.2476742,-1,1,1,-5,0,1,-2,0
1763471013.2711778,0,-3,-3,1,-1,-4,-2,0
1763471013.284952,0,0,0,1,1,-4,-3,-2
1763471013.3075037,0,-1,-2,0,-2,0,1,-1
1763471013.3299232,-2,1,-1,-5,-7,-4,-1,-2
1763471013.344295,-1,-1,0,-1,1,-3,-2,-1
1763471013.3510797,-2,-1,-3,7,2,4,-2,-8
1763471013.3675835,-1,-1,-1,-3,-2,-1,0,1
1763471013.3899872,-1,0,-2,3,-5,6,-1,-3
1763471013.404315,-2,-1,-2,2,2,-2,0,-1
1763471013.411101,-2,-1,0,-1,-1,2,1,-3
1763471013.427528,-2,-1,1,0,0,-4,-1,1
1763471013.4500237,1,-1,-3,-3,-4,-2,-1,0
1763471013.464336,-1,-1,-2,-2,1,-1,-2,0
1763471013.4711554,-1,0,-2,-1,1,0,0,-1
1763471013.4865222,-2,-2,0,1,2,-2,-2,-2
1763471013.4950175,-2,1,-1,-4,-2,-2,-2,-1
1763471013.5099137,-1,-1,-1,2,2,0,-1,-1
1763471013.5243735,-2,-1,-1,-1,1,0,-1,1
1763471013.5311296,-1,-1,-5,-1,1,1,0,0
1763471013.5475328,1,-2,-1,-3,-7,-3,0,-2
1763471013.5700028,0,0,-1,1,1,9,2,1
1763471013.5836325,-4,-2,-2,0,-3,-6,0,-1
1763471013.5925481,-2,0,1,2,2,0,1,0
1763471013.6084092,0,0,-1,2,8,0,-3,-1
1763471013.6300287,0,0,-2,1,2,-1,-1,-2
1763471013.6442678,0,-1,-1,-2,-3,-2,-3,-2
1763471013.6513305,-2,0,-3,3,0,1,-1,-1
1763471013.6675215,-1,0,2,12,-2,-1,0,-1
1763471013.6892035,-1,-2,-3,-2,0,-2,-1,-1
1763471013.697838,0,-1,-2,0,-1,-1,-1,-2
1763471013.7038507,-2,-1,0,-6,-4,0,-1,-1
1763471013.7127924,-1,-1,-2,-7,-3,0,1,1
1763471013.727595,0,0,0,-6,-2,-2,-1,0
1763471013.7501316,-2,1,-2,-4,-1,-3,-1,-1
1763471013.7727134,-1,-3,-2,-4,-8,-5,-1,1
1763471013.7874286,-1,-1,-2,-1,2,-1,0,-1
1763471013.810096,-1,-1,-1,-2,-2,-1,-1,0
1763471013.8236852,0,-2,1,-1,0,-1,-1,-1
1763471013.8326843,-1,0,0,1,0,-3,-3,-2
1763471013.8476267,0,-1,-2,-2,-1,1,-2,-1
1763471013.8700023,0,-1,-1,-5,-3,1,0,1
1763471013.8836954,-1,-2,0,6,4,-2,-2,-2
1763471013.8925748,-1,-1,0,1,-3,-1,0,0
1763471013.907616,-2,-1,-1,-1,-5,-2,-2,-1
1763471013.9302075,-2,-1,-2,-1,0,0,-1,0
1763471013.9437165,0,0,2,-2,-2,-3,-3,-2
1763471013.9527202,-1,0,-1,-2,-1,-1,-2,-1
1763471013.967353,-2,-2,-2,-2,4,-2,0,-1
1763471013.9735808,-1,-1,-3,-6,-5,0,-1,-2
1763471013.9901302,-2,-1,0,1,0,2,0,-1
1763471014.003825,-1,-2,-1,-1,-1,-2,0,-1
1763471014.01264,-3,-1,-1,1,2,1,-2,-2
1763471014.0275853,0,0,-1,-1,1,-2,0,-2
1763471014.049976,-2,0,-1,1,-3,0,-2,-1
1763471014.0639246,1,-2,1,-5,-4,-1,0,-1
1763471014.0728686,0,-1,-1,-4,-4,-1,-1,-1
1763471014.087257,-1,-1,-2,-1,0,0,-1,-1
1763471014.1015768,0,-2,0,-2,0,0,0,-3
1763471014.1101608,-2,0,-2,0,-1,-1,1,1
1763471014.1241448,0,-1,1,-2,-2,-1,-2,-1
1763471014.132708,0,-1,0,-1,-2,-1,1,0
1763471014.147691,-1,-3,-4,2,-3,0,-1,-1
1763471014.1704395,0,0,-1,-4,0,-1,-1,1
1763471014.1926022,0,-1,0,0,-1,-4,0,0
1763471014.214977,-1,-1,1,-3,-2,0,-1,-2
1763471014.2300062,0,1,-1,-2,1,0,-1,0
1763471014.2525845,-1,0,0,-7,-6,0,0,1
1763471014.2665622,-2,0,-1,3,1,-1,1,0
1763471014.2752912,-1,-1,1,-2,-2,0,0,0
1763471014.2900572,-1,-2,-3,1,-1,-2,-2,-2
1763471014.3125098,-1,-1,-2,-2,-2,0,0,-1
1763471014.3273492,-1,-2,-4,-1,1,-2,-2,-1
1763471014.3351946,-1,-2,-4,-2,0,1,1,-1
1763471014.3504755,-1,0,0,1,0,-1,-1,0
1763471014.3725934,0,-1,1,-3,-3,0,0,-1
1763471014.3869565,-2,1,0,-3,-1,-2,-2,-1
1763471014.3935316,0,-1,0,-1,-5,-1,-1,0
1763471014.416634,-1,-1,-1,0,-1,-3,-1,-1
1763471014.4251432,1,-1,0,3,9,2,-2,-2
1763471014.4325902,-1,-1,0,0,0,0,-1,0
1763471014.4469686,-1,-1,-1,1,-1,0,-2,-2
1763471014.45371,-1,-2,-3,-3,-5,-1,0,0
1763471014.4705017,-2,-1,0,-1,0,-1,0,-1
1763471014.492625,-1,-2,-2,-3,0,0,-3,-1
1763471014.507073,-1,0,-1,0,-3,-2,-1,-1
1763471014.5138078,0,1,1,-3,-3,-2,-1,0
1763471014.530297,-1,-3,-1,1,-2,0,1,0
1763471014.552686,-3,-2,-1,0,3,-1,0,-1
1763471014.5669901,1,1,-1,-3,-1,0,0,0
1763471014.5736427,-2,0,-1,1,-3,-1,0,-1
1763471014.5899177,-2,-1,0,-1,-3,-2,0,-3
1763471014.6125202,-1,-3,-2,0,0,2,0,-3
1763471014.6260312,0,0,0,-6,-3,-1,-2,0
1763471014.6350386,-1,-2,-1,-1,-2,-1,-2,-1
1763471014.6502037,-2,-1,-1,1,-1,-3,-1,0
1763471014.6726213,-1,-3,0,0,1,0,-1,-1
1763471014.6861598,-2,0,-2,1,1,0,-3,0
1763471014.6950998,0,-1,0,1,-2,-1,-1,-1
1763471014.7103484,-1,-2,0,0,-1,-1,-1,-1
1763471014.732498,0,-3,-3,0,1,-1,-1,-2
1763471014.7461195,0,0,0,-3,-3,0,1,-1
1763471014.7550738,0,0,-3,0,-2,-1,-1,-1
1763471014.769998,0,0,-2,-1,-4,-1,-1,-1
1763471014.7924798,0,-1,-1,-2,-4,-2,-1,-1
1763471014.806176,-1,1,-1,-2,-1,-1,0,1
1763471014.815126,-1,-1,-1,-1,-6,-2,-1,-2
1763471014.8299346,0,-1,-1,1,-1,-2,0,0
1763471014.8525956,-2,-1,0,-3,0,1,-2,-1
1763471014.8662474,-2,-2,0,1,1,-1,-2,-2
1763471014.8751981,-1,-1,-2,0,-1,-2,1,0
1763471014.88997,-1,0,-2,-2,-1,0,-2,-1
1763471014.919963,1,-2,0,-2,-4,-1,-3,-1
1763471014.9260252,-1,-1,0,-1,-3,-1,1,-1
1763471014.9350705,-1,-1,0,-1,-2,-1,-2,0
1763471014.9499733,-1,-1,0,0,-1,-1,-2,-2
1763471014.9726417,0,0,-2,0,-4,-1,0,-1
1763471014.9860833,-1,-2,-1,0,3,-1,0,0
1763471014.9950593,-2,-2,-3,0,-1,-1,-1,0
1763471015.009967,0,-1,-2,-1,0,0,0,-1
1763471015.0324745,-2,-1,-1,-1,2,-2,-2,0
1763471015.04629,0,-1,-2,-2,-1,-2,-1,-2
1763471015.0552094,0,-2,-1,-1,-3,0,-1,-2
1763471015.070048,-2,0,-1,-1,0,-2,-1,0
1763471015.0925007,0,-2,-3,0,0,1,0,-2
1763471015.1150882,0,0,2,-5,-7,0,1,0
1763471015.130016,0,-1,-4,-2,0,-1,0,0
1763471015.1600575,-3,0,-1,2,-2,0,1,-2
1763471015.1749554,-1,-1,-1,-1,-4,-1,-1,-2
1763471015.1903062,0,0,0,2,-3,-2,-2,-2
1763471015.2129457,-3,-1,-1,-2,2,0,-1,-2
1763471015.2349706,0,-2,-1,-2,1,0,2,0
1763471015.2492743,-4,-1,0,2,3,-1,-2,1
1763471015.256277,0,-2,-4,-4,-4,0,0,-2
1763471015.2725112,0,-1,-2,-2,-5,1,0,1
1763471015.2951121,-1,-1,-1,1,4,0,-4,-1
1763471015.3094144,0,0,-1,-2,-2,0,-2,-1
1763471015.316353,-1,-1,0,0,1,-1,-2,-1
1763471015.3327641,-1,-1,-3,-4,-2,-3,1,-2
1763471015.355226,-1,-1,-1,1,2,-1,-1,-2
1763471015.3693016,-1,1,0,-1,-6,-1,1,-2
1763471015.376125,-2,-1,-2,-1,-1,-1,-1,-1
1763471015.3925054,-1,0,-1,-1,-3,-2,-2,0
1763471015.4151022,-1,-2,1,-1,2,-2,0,-2
1763471015.4293237,-1,-2,-1,-1,2,1,-3,-1
1763471015.436119,0,-2,0,-1,4,-1,-1,0
1763471015.4525878,-1,-2,-3,1,1,1,0,-3
1763471015.475044,0,-2,0,-5,-6,-1,0,-2
1763471015.4893148,-1,0,-1,1,0,-1,-2,0
1763471015.496112,-1,-2,-2,1,-1,-1,-1,-1
1763471015.5124435,-1,-2,0,-2,-1,-2,-1,0
1763471015.535127,1,-2,-1,-1,-9,-1,-1,0
1763471015.549273,-2,0,-1,-3,2,1,1,0
1763471015.5561213,-1,-3,-2,0,1,0,-3,-1
1763471015.5726604,-1,-2,-2,1,2,1,-1,-1
1763471015.595117,-2,-2,-1,-1,1,-1,-3,-1
1763471015.6085515,-1,1,-1,1,1,-3,1,-1
1763471015.6176746,0,0,1,-2,1,-1,-1,0
1763471015.632869,0,-1,-1,-2,-11,-3,-1,1
1763471015.6552181,-1,-2,-4,-1,-2,-2,-2,0
1763471015.6687145,2,7,5,12,27,2,0,1
1763471015.6776845,-6,-17,-24,-6,4,9,-4,-3
1763471015.692579,3,2,7,-1,-5,0,-2,-1
1763471015.7151215,-1,-2,9,-20,-13,-1,-2,-2
1763471015.7286165,3,9,10,12,2,6,0,1
1763471015.7376113,-6,-41,-45,-23,-26,5,3,-1
1763471015.7526197,-6,-31,-21,-22,16,3,-2,-3
1763471015.7749927,-15,-22,-8,-6,-7,-8,-1,-5
1763471015.7888353,-13,19,-2,9,-2,-7,-2,1
1763471015.7976956,6,13,10,1,1,7,-4,-2
1763471015.8125067,0,-3,-27,3,-2,4,3,-1
1763471015.835094,-1,-29,11,10,0,-1,-4,-3
1763471015.8486528,5,7,-16,31,35,-3,-1,0
1763471015.8575747,0,20,12,15,7,4,1,1
1763471015.8717978,0,-46,6,2,-13,-3,-2,0
1763471015.8785608,-1,5,0,3,10,-5,-3,-2
1763471015.895163,3,22,-3,-22,-28,-6,-1,-2
1763471015.9086144,3,24,6,-2,-18,-4,0,1
1763471015.917779,1,4,0,8,-14,-3,-1,-1
1763471015.9400885,0,-5,5,15,15,-1,0,0
1763471015.9551344,3,6,1,-4,-2,31,1,1
1763471015.9687479,2,5,-9,-15,-4,-15,-2,1
1763471015.9776506,0,-2,-3,-12,-28,-4,-3,-2
1763471015.992001,-3,8,1,-7,-5,-35,-46,-29
1763471015.998591,0,1,6,-9,0,-24,39,6
1763471016.0151837,-22,-3,15,14,3,4,31,25
1763471016.0377486,66,15,12,-105,44,50,103,12
1763471016.0517735,-4,-7,-52,61,-54,-27,7,73
1763471016.058747,-36,5,40,61,36,-18,-27,-128
1763471016.0750475,-23,2,11,-40,19,16,-32,-36
1763471016.0985038,4,8,32,38,-39,13,6,7
1763471016.1046891,0,24,61,35,3,-51,-73,31
1763471016.112185,13,8,14,34,6,27,77,-31
1763471016.119011,-19,-21,3,71,14,-25,-25,-5
1763471016.1350124,-14,-19,-27,27,11,24,-37,59
1763471016.1572971,-19,9,4,-27,-1,-35,-76,-46
1763471016.1636214,-14,-9,-43,-100,21,71,-32,0
1763471016.1710923,2,-10,-27,41,26,10,-20,-6
1763471016.1800923,-23,-10,0,-34,-73,-37,-35,-119
1763471016.1949673,32,12,42,32,4,8,-55,-96
1763471016.2179704,4,-4,-29,-32,8,1,-31,7
1763471016.232566,0,9,21,17,33,-21,20,39
1763471016.2402828,14,5,8,-7,1,17,-9,3
1763471016.2551267,7,-8,-7,42,-29,-51,-13,-3
1763471016.277763,-15,-8,-15,-19,23,55,18,2
1763471016.2913084,-29,-23,-24,36,-18,-37,-51,-128
1763471016.300287,59,7,26,-1,-4,-64,10,127
1763471016.3150637,-8,-9,10,-26,-13,41,92,-113
1763471016.3456192,32,8,44,3,11,-35,-7,60
1763471016.3512957,-8,14,-11,12,-8,-71,-27,16
1763471016.3601646,11,13,6,-78,-46,-18,64,11
1763471016.3749938,-1,9,15,-42,-13,9,14,94
1763471016.3975906,-25,-24,-22,22,-16,-11,-12,-80
1763471016.411219,-24,-9,-26,-30,10,-26,-15,-63
1763471016.420108,5,-7,35,95,10,28,-43,-14
1763471016.4350262,13,24,21,-25,10,-12,-9,127
1763471016.4575195,-15,8,20,70,-8,74,46,-5
1763471016.4718168,-9,1,-13,-55,36,3,-14,-82
1763471016.4787657,-7,-19,-40,-5,-21,15,47,37
1763471016.4949405,-10,-10,21,-27,13,-28,3,15
1763471016.5175757,6,-24,-61,-82,-11,33,6,-54
1763471016.5312488,21,8,-39,-13,-17,6,-54,36
1763471016.5572143,-30,-17,-35,-56,-3,30,-10,0
1763471016.5778303,-17,6,17,-23,-7,-3,-12,12
1763471016.5919204,8,11,14,36,-20,-24,15,14
1763471016.6005611,-16,-4,-3,-35,-7,-16,-1,-40
1763471016.6144516,14,5,19,19,-26,-30,21,-71
1763471016.6453834,-2,-22,19,21,-15,10,103,17
1763471016.6595528,17,8,7,-7,-31,11,-13,40
1763471016.674727,5,14,5,17,-22,35,-17,0
1763471016.6983795,-6,1,-3,-36,-13,-16,1,-61
1763471016.7194142,6,-20,-36,-56,8,-68,-3,83
1763471016.7346156,30,5,5,-4,4,-53,-62,108
1763471016.7571208,-24,-14,-23,-24,11,-6,-26,-104
1763471016.7796426,-6,2,7,-11,13,31,17,-33
1763471016.7947643,4,-6,-21,-28,-21,-39,28,29
1763471016.825131,-4,0,20,5,13,30,-13,9
1763471016.839395,-1,-9,11,57,-33,-79,-16,68
1763471016.8629906,-7,3,-7,-18,-30,79,12,-51
1763471016.877078,-12,6,4,14,53,111,-36,38
1763471016.8992903,2,-7,-10,51,38,-17,69,42
1763471016.9239693,-38,-6,7,-23,-41,-56,-60,-49
1763471016.936845,11,17,9,-43,12,14,20,-60
1763471016.9593234,-2,1,-7,4,10,30,-23,-52
1763471016.975769,13,21,-6,-34,-5,-12,47,-88
1763471016.9983768,-11,-14,4,5,-10,-8,-22,-65
1763471017.0276322,-5,1,21,55,15,-59,-87,-10
1763471017.0343533,4,24,17,-44,-31,24,-22,32
1763471017.056883,-2,4,1,13,10,-2,20,-27
1763471017.0794234,-1,-3,-2,2,-23,-40,-8,104
1763471017.102642,-1,-12,-11,30,10,32,11,33
1763471017.1250038,0,-1,1,10,21,36,86,81
1763471017.1394503,10,-4,-17,-34,-18,-22,-8,-14
1763471017.1632352,-2,-3,1,14,-5,-19,-14,-18
1763471017.1769376,4,4,4,20,24,14,113,96
1763471017.1994786,-13,-1,19,21,-32,-18,-32,-62
1763471017.21439,-18,10,8,-21,11,-37,-35,-49
1763471017.2368736,-4,-4,-16,-49,6,14,-15,-65
1763471017.2594314,17,-8,-18,1,-14,13,-6,-47
1763471017.2743049,-9,-5,1,9,-15,0,0,58
1763471017.305107,-3,-5,28,1,-2,54,11,-32
1763471017.3191445,-9,-13,5,25,14,79,5,7
1763471017.3268275,-11,-3,-13,12,34,33,53,-45
1763471017.3342328,11,-7,-17,-18,1,-44,-1,39
1763471017.356997,18,1,3,21,15,-2,8,-7
1763471017.3794422,-17,-6,-30,-66,15,-6,-49,-90
1763471017.3944693,9,0,-8,39,4,27,12,-17
1763471017.416854,3,3,-9,21,7,2,17,60
1763471017.4411352,-1,-3,-3,-14,5,-13,-49,-13
1763471017.4536362,8,-1,5,22,-26,-45,-42,-6
1763471017.4618602,-16,-10,-12,-6,-6,-48,-27,-88
1763471017.4850237,-12,2,25,27,-15,3,2,-17
1763471017.4993546,-3,-1,-2,-39,-9,-3,16,-47
1763471017.5136821,7,-2,-14,33,-16,34,60,-14
1763471017.521798,8,-3,1,11,-21,-46,-39,47
1763471017.5368388,-13,-7,3,-26,-4,10,6,11
1763471017.559287,11,8,-3,-5,24,-19,35,45
1763471017.5736463,7,-6,-17,-3,10,19,-7,102
1763471017.5818043,8,7,14,51,-23,-38,-25,50
1763471017.5965726,-7,-3,5,-5,10,-28,25,-37
1763471017.6043932,-6,8,31,-11,-44,51,7,-25
1763471017.6193016,0,-9,-14,-13,-36,-16,-34,71
1763471017.6336427,-14,6,-1,-13,-4,-2,4,11
1763471017.6418102,-6,-3,-16,38,2,-40,-26,-14
1763471017.6575236,-12,-10,-16,-19,31,7,-70,-112
1763471017.6793132,7,-8,-8,-16,-9,-6,-10,-127
1763471017.693625,-3,15,21,40,5,52,-27,58
1763471017.7018712,0,1,7,-27,24,4,-46,-6
1763471017.7168,-15,2,3,-14,-22,-29,15,-21
1763471017.7393575,-3,-10,-33,-3,-31,15,-7,69
1763471017.7537723,0,-8,-12,-35,8,0,10,-10
1763471017.7782075,-3,6,8,37,-9,23,-16,64
1763471017.799347,26,-2,9,53,-7,-50,21,40
1763471017.8137903,-8,-1,12,30,-29,-37,8,-45
1763471017.8219092,-9,2,24,23,7,14,-33,-97
1763471017.8370147,7,-11,-50,-56,8,15,13,15
1763471017.8677316,-8,-4,-9,2,9,-55,8,-6
1763471017.8740199,3,-3,8,52,56,22,-12,5
1763471017.88206,26,5,7,40,-1,-1,19,68
1763471017.8970633,-16,1,27,-30,7,-4,-69,-126
1763471017.921237,-4,-13,-19,-25,-19,-29,-20,-14
1763471017.9427106,8,11,9,11,-15,4,11,103
1763471017.9568,-32,-1,16,-3,26,33,8,-58
1763471017.9950552,-2,8,9,4,-7,-3,38,95
1763471018.0100749,-18,-16,-27,-28,-3,-39,-38,-106
1763471018.017167,18,11,0,-11,-4,-6,-10,9
1763471018.0318286,-5,12,17,20,20,52,-8,-79
1763471018.0474944,-2,-8,2,6,-10,-15,-28,-22
1763471018.062551,-5,-9,-12,-32,-10,32,-17,-108
1763471018.0849988,-4,-2,-5,-17,-23,-6,36,45
1763471018.0994368,-5,8,16,38,-1,43,-1,-13
1763471018.1226366,4,-1,-23,-21,15,45,-6,5
1763471018.136827,6,-1,7,-6,0,-48,-25,2
1763471018.159347,-8,-1,11,67,-6,5,33,19
1763471018.182587,0,7,-5,-51,-1,-44,-40,-5
1763471018.2126226,49,15,13,-37,0,-44,15,58
1763471018.2196405,-9,-7,-34,-85,-20,-29,-27,15
1763471018.250633,-4,-1,9,26,0,97,7,-89
1763471018.2568223,-3,1,8,-7,-30,26,37,13
1763471018.279902,-2,0,3,-3,-1,-6,15,-20
1763471018.2869725,9,-1,-9,-37,-29,0,6,1
1763471018.3018441,-5,-11,-33,23,21,-22,-4,-42
1763471018.3167977,5,-9,6,127,23,9,-8,-12
1763471018.3393724,16,14,28,9,8,-21,13,44
1763471018.362117,3,2,-7,-52,-13,26,-6,71
1763471018.376927,-18,-6,6,20,-10,13,57,-13
1763471018.3993752,2,13,19,12,34,12,-26,-10
1763471018.4218857,-4,5,10,29,9,-28,-38,-70
1763471018.4384017,-2,-4,-8,-34,-1,20,-11,18
1763471018.459317,-20,-7,-6,-27,8,-8,9,-1
1763471018.4901063,-2,-12,-22,-41,-33,-27,-8,-11
1763471018.4968734,4,1,-23,-34,-26,-27,-6,-45
1763471018.5195453,-8,-6,1,15,7,7,-7,-11
1763471018.5422907,-2,-1,-1,-26,2,39,19,-3
1763471018.5562706,12,5,14,31,15,-22,5,112
1763471018.5643897,8,-3,-20,-1,-6,3,-1,-45
1763471018.5793476,9,-2,-11,-22,-3,9,3,-31
1763471018.6021113,3,2,8,16,5,5,-19,-4
1763471018.616294,-3,-7,-7,-18,-21,-11,-3,-16
1763471018.6243584,25,11,1,-37,-6,25,16,89
1763471018.639334,-2,5,20,53,7,4,-19,6
1763471018.661835,-4,5,4,-6,26,6,2,-28
1763471018.6776042,-14,0,-8,-23,-28,-16,7,31
1763471018.6918314,3,-7,-27,-44,-2,17,31,4
1763471018.7075522,-5,2,10,26,29,-12,8,8
1763471018.7218864,17,2,17,23,3,-25,2,63
1763471018.7361844,-21,-7,1,-23,-6,16,-21,-58
1763471018.7443,0,5,16,19,-1,1,-29,-54
1763471018.7592983,-8,-4,-8,18,7,19,-3,-8
1763471018.7818418,5,-4,0,0,-21,4,-34,14
1763471018.7962773,-1,-4,5,-26,-21,-32,7,-12
1763471018.804439,-2,1,13,21,-14,7,17,-4
1763471018.8193748,15,-3,-16,-8,11,-31,7,-12
1763471018.841767,3,0,1,-4,3,41,18,-10
1763471018.8650467,-2,-5,0,-9,-22,-21,11,-18
1763471018.8794053,-8,-10,-7,-8,4,17,0,-12
1763471018.9021294,11,6,5,2,5,22,30,60
1763471018.9251356,-18,-8,-9,-16,-11,29,29,-36
1763471018.939405,15,6,3,11,-25,-24,-9,5
1763471018.9619339,-12,0,5,-26,32,-18,-23,-40
1763471018.9856076,-1,4,1,-5,-1,-16,-33,-26
1763471018.9992878,6,8,13,34,-20,24,14,76
1763471019.0301747,-10,-4,-4,-26,-4,-8,-20,-78
1763471019.0453663,-4,-6,-7,14,6,10,20,15
1763471019.0595293,0,4,23,68,16,15,-26,-36
1763471019.0824695,13,-1,3,9,-9,10,-18,63
1763471019.105265,-4,-11,-22,-2,-10,-53,20,-42
1763471019.1195414,0,0,-14,-11,3,7,6,18
1763471019.1434474,2,-2,2,3,-9,-29,1,3
1763471019.165249,-9,2,3,-4,-1,19,1,1
1763471019.1794865,-4,-3,-15,3,9,7,27,-9
1763471019.2106092,-12,3,-5,-28,-9,-36,-28,-1
1763471019.2252836,-1,2,22,30,4,7,2,119
1763471019.2396934,1,-3,-5,-18,19,13,35,-37
1763471019.2620978,14,-4,-30,-18,11,-29,18,-17
1763471019.2852297,16,5,16,36,13,42,-10,-3
1763471019.3078876,6,1,-8,-8,-6,21,-5,-17
1763471019.322132,-1,-1,4,25,-10,-10,-23,-6
1763471019.345722,-6,-5,-24,-53,16,1,41,6
1763471019.3596163,-1,-2,10,24,-4,-5,-15,22
1763471019.3820016,2,-1,1,11,-26,-39,-16,36
1763471019.4052217,-4,-13,-31,-4,5,-31,-35,-37
1763471019.4194188,-4,-9,-5,-31,-6,33,-8,-38
1763471019.4419706,16,13,21,43,35,40,10,53
1763471019.4652703,-7,-2,1,3,1,57,23,-77
1763471019.4869113,-3,-1,0,-28,-2,-17,1,-41
1763471019.4946873,-4,-3,3,42,6,33,0,-41
1763471019.5021777,-12,-8,-10,33,-9,-15,-11,6
1763471019.525138,-12,6,7,-26,1,-3,32,71
1763471019.5480115,-13,-2,8,6,-3,-43,-32,-33
1763471019.5619793,0,-7,-1,-11,-30,-39,3,-26
1763471019.5851574,-2,3,17,-3,4,-6,3,-5
1763471019.598835,-4,-1,-10,-10,7,57,4,-44
1763471019.6071086,7,17,9,-19,-21,-2,-23,14
1763471019.6220262,-5,-5,-12,-28,-27,12,-18,-36
1763471019.6450632,0,-1,-10,3,-14,2,-2,10
1763471019.6587043,6,9,12,27,28,-12,10,110
1763471019.667073,-4,-13,-22,9,24,2,-1,-67
1763471019.6819963,-3,0,-6,5,8,5,-14,-29
1763471019.7126486,-12,-2,-8,-25,-10,-33,-38,-16
1763471019.7276993,23,14,18,26,-12,-18,58,-7
1763471019.7418456,4,4,1,-53,8,8,-14,-33
1763471019.7652433,-15,-7,-3,-8,31,22,-14,24
1763471019.787584,14,4,0,-10,-31,-24,-5,-27
1763471019.8020005,2,-14,-1,21,3,-25,-3,-71
1763471019.8251362,0,10,7,-14,-8,-4,42,49
1763471019.8477256,11,2,-3,10,9,30,-7,40
1763471019.8619344,-8,-5,3,23,-22,-10,-13,-6
1763471019.8851435,-18,-17,4,26,-9,-4,-9,-46
1763471019.9075298,-18,0,-9,7,7,25,-23,-30
1763471019.9375865,0,1,10,19,25,31,13,13
1763471019.9526951,14,9,7,-25,-15,-25,4,16
1763471019.9675462,6,-1,-9,-40,14,-15,-23,-28
1763471019.9901166,5,-8,-23,-2,31,54,-8,-29
1763471020.0046737,12,9,9,6,1,-13,17,38
1763471020.0277755,-4,-7,4,59,11,48,19,-23
1763471020.042133,-4,-2,7,-7,-26,16,2,6
1763471020.0644414,7,0,-11,-9,-17,-42,-18,30
1763471020.0879464,-1,-8,-8,-37,-12,19,2,26
1763471020.1019824,-9,-8,-26,-17,9,-16,-1,-30
1763471020.1244051,-6,-3,13,0,29,-1,36,8
1763471020.1396003,-3,-2,9,25,3,17,-42,-3
1763471020.1473296,15,5,-4,-3,20,2,-36,-16
1763471020.1619163,8,-3,-9,-6,6,12,51,17
1763471020.1927,-3,-5,-19,-34,10,-8,-6,-37
1763471020.2075968,-4,-2,4,-21,-8,-4,-21,-41
1763471020.2219758,16,11,25,24,-33,-32,20,14
1763471020.2446249,-14,-1,11,19,-14,-13,-26,-13
1763471020.267774,-10,-6,-5,20,-22,-26,-16,27
1763471020.2819612,-18,-6,-27,-30,-4,38,19,21
1763471020.304486,10,6,22,-13,10,42,50,67
1763471020.327491,-19,-6,-13,-10,-2,11,-3,-63
1763471020.3418584,7,1,-10,-7,-12,-18,-15,73
1763471020.364354,-14,0,11,11,-4,-20,-17,-24
1763471020.3877587,2,1,9,17,21,-18,-11,36
1763471020.4013472,-8,-2,8,-1,-8,-32,-21,-64
1763471020.409472,18,5,4,28,14,-15,17,34
1763471020.4326167,10,-1,3,-4,-9,-19,-23,-44
1763471020.4477022,3,0,-6,33,14,23,9,-7
1763471020.462006,1,1,-2,-19,-28,14,23,28
1763471020.4693885,10,10,4,-4,9,26,-9,-19
1763471020.4929783,5,-6,-5,23,-6,12,23,-4
1763471020.5075,-13,3,-5,20,15,-39,-32,-30
1763471020.5211666,3,0,8,-27,-16,-3,-30,14
1763471020.52967,-2,4,-1,-13,-22,-17,-33,30
1763471020.5525312,2,-15,-34,10,11,-19,-15,3
1763471020.5675917,1,6,9,-7,-22,-29,2,-32
1763471020.5813146,-5,0,4,-6,-31,3,-6,-14
1763471020.589438,-5,4,7,2,-2,28,11,36
1763471020.6044695,-10,-7,-9,-5,20,21,4,11
1763471020.6275296,9,10,4,3,10,-9,9,3
1763471020.6411881,3,-8,-6,-6,-20,0,14,96
1763471020.6492357,-5,4,-13,3,0,-5,6,26
1763471020.664521,2,-7,-16,5,15,-2,-11,48
1763471020.6876752,-6,11,23,-17,15,-8,-8,-30
1763471020.7013392,7,-1,8,-6,5,-15,-13,19
1763471020.7094705,3,2,16,25,-20,-27,0,-26
1763471020.7244444,-15,-16,-23,-3,4,30,-27,-39
1763471020.7476206,-4,6,5,7,-30,-34,-8,-65
1763471020.7702196,0,2,11,2,14,11,18,-7
1763471020.7844307,4,5,-5,-19,-7,6,-1,-1
1763471020.8077745,16,3,3,-23,-14,-10,50,53
1763471020.8300931,-14,-10,4,17,-12,11,-16,-40
1763471020.844353,-8,-6,-9,12,12,4,-14,-30
1763471020.8677506,-8,7,8,0,-14,4,-5,4
1763471020.890215,15,-1,-4,-5,5,-3,-54,-18
1763471020.9043553,10,2,3,-1,5,4,6,12
1763471020.9351952,21,-5,-5,10,19,1,22,-7
1763471020.9505992,6,0,-3,-11,-19,-9,17,-9
1763471020.9643567,2,-7,15,32,41,4,0,-6
1763471020.987676,-23,-3,-7,-32,-33,-6,1,-21
1763471021.01018,-7,0,-6,-7,-7,16,-7,1
1763471021.0246212,-13,0,3,0,-3,-3,1,-2
1763471021.047814,-11,-3,2,1,-16,-5,12,4
1763471021.0702093,6,4,-2,31,28,0,28,-1
1763471021.0844078,-9,4,2,1,-21,1,-6,2
1763471021.1075819,13,-1,-4,-3,-2,-7,-19,-5
1763471021.130193,-3,3,-2,-4,-3,0,6,3
1763471021.1525068,1,1,2,7,4,13,-2,1
1763471021.166941,-6,-1,-6,-6,9,-7,-10,1
1763471021.1914968,-1,-5,3,-1,1,0,2,4
1763471021.2045393,-1,-1,5,5,6,2,1,-2
1763471021.2269812,-5,-4,-4,-13,-12,-3,4,-1
1763471021.2501612,1,-1,-8,-9,1,8,2,-1
1763471021.26503,2,4,5,-10,-9,-13,-1,1
1763471021.2871006,-2,3,-14,-5,-1,-15,-5,-1
1763471021.310428,-1,2,5,1,-4,2,-3,-2
1763471021.3245583,-4,-5,0,0,-14,-11,-2,-2
1763471021.3553836,-1,-2,-1,3,8,7,-2,0
1763471021.370445,2,-5,-2,-2,4,-1,0,-2
1763471021.384664,-3,-3,2,4,4,2,-1,-1
1763471021.3922703,1,1,1,-2,-1,-15,0,-1
1763471021.4151373,-1,0,0,1,-3,1,0,0
1763471021.4300742,0,-2,-1,1,4,3,-1,2
1763471021.4440708,1,-2,0,3,-1,-1,-2,-1
1763471021.4519882,-1,1,0,-2,0,11,1,-2
1763471021.466873,-3,0,-4,-3,1,4,-2,-3
1763471021.4901311,0,0,-3,1,-2,-4,-2,-1
1763471021.5038455,-1,-1,0,-1,0,-5,-1,0
1763471021.5119653,-1,0,-1,-1,-3,-1,-1,-2
1763471021.5268981,0,-1,1,0,0,-2,0,-2
1763471021.5508044,-1,-2,-1,-4,-3,2,0,1
1763471021.5647788,-1,-3,-3,1,2,1,0,-1
1763471021.5727873,-2,-2,0,0,0,-2,0,0
1763471021.587177,-1,-1,-2,-2,0,-1,-2,-1
1763471021.6100903,1,-1,-2,-1,-2,-8,-1,0
1763471021.6236901,-2,-2,-1,-3,-7,-3,0,-2
1763471021.6318846,-2,-1,-4,3,4,6,0,-2
1763471021.646864,-2,-2,-2,2,4,0,1,-2
1763471021.6702332,0,0,-1,3,-1,-2,-2,0
1763471021.692725,-1,-2,-1,-4,1,-1,-3,-1
1763471021.7071238,-1,-1,-1,-1,0,5,0,-1
1763471021.7303376,-1,1,0,1,0,-1,0,0
1763471021.7526772,-1,-1,-1,0,0,-2,-1,-1
1763471021.7668426,1,0,1,-1,-2,-2,-2,-2
1763471021.7901187,-2,0,-1,0,-2,-2,-2,0
1763471021.8201332,-2,0,0,-3,-2,1,-1,0
1763471021.8268735,-1,-1,-1,0,-3,1,-2,0
1763471021.850042,0,0,-2,0,-1,-1,0,-1
1763471021.8726943,0,0,0,-4,-4,2,-1,-1
1763471021.887093,-2,-1,-2,0,0,-3,-1,0
1763471021.9102201,-2,-2,0,0,-1,0,-2,0
1763471021.9326334,-1,-1,-2,0,0,0,-1,-2
1763471021.9470038,-2,-2,-2,2,1,-3,-3,-1
1763471021.970386,1,-1,0,-3,-3,-1,0,-1
1763471021.9927597,0,0,1,-2,-1,0,-1,0
1763471022.0073938,-2,-1,1,3,1,-1,-1,-2
1763471022.0303097,-1,-2,-1,-1,0,-2,0,0
1763471022.0526628,-1,-1,-1,0,1,0,-1,-2
1763471022.0669193,0,0,-2,1,0,0,0,1
1763471022.0979457,-1,-3,-1,-2,-2,0,-2,0
1763471022.112614,-2,-3,-2,-3,-2,2,0,-2
1763471022.1269612,-1,-2,0,0,0,-1,-1,-2
1763471022.1500585,-1,1,-1,-2,-2,-2,1,-2
1763471022.17286,-3,0,-1,-1,-3,-3,-2,-2
1763471022.1864655,0,-1,-3,-1,0,-1,-1,-1
1763471022.195336,-2,-1,0,-3,-1,0,0,1
1763471022.2100573,-2,-1,1,-1,-2,-1,0,0
1763471022.2326524,-1,0,-1,-2,-1,0,-1,-1
1763471022.2462847,0,-1,-1,-1,-1,-1,-1,-1
1763471022.255345,-1,-1,-3,-1,-2,-1,-1,0
1763471022.2700918,-1,-1,-2,-1,-2,1,0,-1
1763471022.2926493,-1,-1,-2,-1,0,-1,-1,1
1763471022.3062134,0,0,-1,0,-1,-2,0,-2
1763471022.3151999,-1,-2,-2,0,0,-2,-1,1
1763471022.330133,-2,0,-3,-1,-2,1,1,0
1763471022.3526115,-1,-3,0,-3,-1,-1,-3,-1
1763471022.3663018,-1,-1,0,0,0,0,0,-2
1763471022.3752434,-1,0,1,2,-1,0,-2,-1
1763471022.3900735,1,-1,-1,0,0,-3,-3,-2
1763471022.4127982,0,-2,-1,1,2,0,3,0
1763471022.4265823,0,-1,-2,-1,-3,-1,0,1
1763471022.4353359,0,-2,-3,-1,-1,-1,0,-2
1763471022.450054,-1,-2,-2,-5,-4,0,1,1
1763471022.47264,-1,-1,-3,0,-1,-2,-2,0
1763471022.486363,-2,-2,1,-1,-1,-1,1,-1
1763471022.4952776,-2,-2,-2,-1,0,-1,-1,-2
1763471022.510069,-1,0,-1,1,1,-2,-1,-2
1763471022.532608,0,-2,-2,-1,-2,0,-2,-1
1763471022.5462682,-1,-2,-1,-3,0,-2,-2,0
1763471022.555368,0,-1,-1,1,-2,1,-1,-1
1763471022.5700905,-2,-1,0,0,0,-1,-2,-1
1763471022.6000874,0,-3,0,1,-2,0,-1,-2
1763471022.6061373,-1,-2,-1,-3,-5,-1,0,-2
1763471022.6153436,-2,0,0,-2,-2,-2,-2,-1
1763471022.630148,-1,1,0,-3,-4,-1,0,-2
1763471022.652707,0,-2,0,2,2,1,0,0
1763471022.6751227,0,-1,-3,-2,0,-1,-1,-2
1763471022.6902378,0,0,-1,0,0,1,-2,-2
1763471022.7127016,-1,-1,-1,-2,0,-1,-2,-2
1763471022.735192,-1,-1,-1,-2,-1,-2,-2,-1
1763471022.7500737,1,-2,-1,0,0,1,-2,-2
1763471022.7728274,-2,1,-1,-3,0,-2,0,0
1763471022.7951937,-2,-1,0,-1,-3,-2,-2,0
1763471022.8094585,1,0,-1,-1,-1,-1,1,0
1763471022.8163402,-1,-1,2,1,0,-1,1,-1
1763471022.83256,0,-1,0,0,0,-1,-1,-1
1763471022.8552425,-3,-2,-2,-2,0,0,0,-2
1763471022.869423,-2,-1,-2,3,0,-1,-2,0
1763471022.8762884,-3,0,-2,0,1,-1,-1,-1
1763471022.8926637,-1,-2,-1,-1,0,1,-1,1
1763471022.9154053,-4,-2,-3,-3,-2,-1,-1,0
1763471022.9294538,1,0,0,1,-1,-1,-2,-1
1763471022.9362168,-2,0,-1,0,-1,-1,0,-1
1763471022.952895,-1,0,-1,-3,-2,0,1,-1
1763471022.9755473,-2,-2,-2,0,0,-1,-1,-1
1763471022.989652,0,-1,0,-1,-1,-2,-2,-1
1763471022.9965138,-1,-1,-5,-1,-1,-1,1,-1
1763471023.0128405,1,-1,0,-3,-3,-1,-1,-1
1763471023.034368,-1,-3,0,-1,-1,0,-2,-2
1763471023.0427556,-1,-1,-1,-2,-1,0,0,0
1763471023.0493999,1,0,-1,-1,-1,-2,-1,0
1763471023.0562332,-1,-2,0,0,-2,0,-1,-1
1763471023.0728965,-1,-2,-2,-2,0,0,-1,-1
1763471023.0953205,-3,-1,0,2,0,0,0,0
1763471023.1096184,0,0,-1,-3,-3,-1,-2,-1
1763471023.1167147,-1,-1,-2,-5,-3,-2,0,-1
1763471023.132826,-3,0,1,-1,0,-2,-1,-2
1763471023.1552477,-1,0,0,0,-2,-2,-1,-1
1763471023.168801,-1,0,-1,-1,0,-1,-1,-1
1763471023.1778054,-1,0,-1,1,0,0,0,0
1763471023.1923838,-2,-1,0,-1,-1,-1,0,-1
1763471023.2062247,1,-1,0,0,0,-2,-1,-2
1763471023.2150965,1,-1,0,-1,0,0,-2,1
1763471023.2288191,0,-2,-2,-2,0,-1,-1,-1
1763471023.2377415,-3,-1,0,-1,0,-1,-3,-1
1763471023.252625,1,1,0,0,-1,-1,-3,1
1763471023.2751217,-1,-1,-2,0,0,1,-1,0
1763471023.2886913,-1,-3,-2,-2,-1,-1,0,-2
1763471023.2977245,-1,0,0,0,0,-1,0,-1
1763471023.3116739,-2,-3,-1,-1,-1,0,-2,-2
1763471023.3203013,-1,-2,-2,-3,-3,-2,-2,0
1763471023.335132,-1,-2,-2,0,-2,-2,0,-2
1763471023.3487244,-1,0,-1,1,-2,-1,-1,-1
1763471023.3577197,-1,-1,1,-1,0,-1,-2,-1
1763471023.3726745,-2,0,-3,-2,-2,-1,0,0
1763471023.395171,-2,1,1,-1,1,-2,-2,-1
1763471023.40892,-1,-1,-3,1,-1,0,0,-1
1763471023.417853,0,-3,-1,-3,-5,-1,-2,0
1763471023.432518,-1,-2,-3,-3,-1,-1,-2,-1
1763471023.4551628,0,0,1,-1,0,0,-1,0
1763471023.4688118,-1,-3,-2,-1,-2,-1,0,0
1763471023.4854395,0,0,-1,0,0,-1,-1,-2
1763471023.4925942,-1,0,1,-2,-3,0,-1,-1
1763471023.5151987,-2,-2,-2,2,-2,-2,1,-1
1763471023.5289419,0,1,-1,-3,-1,-1,0,-3
1763471023.5377424,-1,-1,-3,-1,-3,-2,-1,0
1763471023.553515,0,-2,-3,-1,-2,-2,0,-1
1763471023.575132,1,-1,0,-2,0,-1,-1,0
1763471023.5975797,-2,0,1,1,1,0,-1,-1
1763471023.6127837,-2,-2,-2,-3,1,-2,-1,-2
1763471023.635295,-1,0,-2,-1,-2,-2,-1,-1
1763471023.6577458,0,0,-2,0,0,-1,0,0
1763471023.6727993,0,-3,-1,1,0,-1,0,-1
1763471023.6951327,0,0,-2,-1,-2,-2,0,-1
1763471023.7176976,-2,-3,-1,0,-2,-1,-1,0
1763471023.731928,-2,-2,-2,-2,-1,-2,-2,-3
1763471023.738717,1,-1,-1,-2,-4,-2,-1,0
1763471023.7549045,-1,1,0,-1,-1,-1,-2,-3
1763471023.7614086,-2,-1,-2,-1,-2,-2,-2,-1
1763471023.7777421,-2,-1,-1,-2,0,1,0,0
1763471023.7920022,0,-2,1,0,0,0,-1,0
1763471023.7986841,-2,-2,-4,-2,-3,-2,0,0
1763471023.8157423,-1,1,-1,-2,-1,-1,0,0
1763471023.837724,-1,-1,1,0,-2,0,-1,0
1763471023.8519998,0,-2,-1,0,-2,-1,-1,1
1763471023.8588166,-2,-1,0,-1,-1,0,-2,0
1763471023.8751173,-1,0,-1,0,0,0,-1,-1
1763471023.8976343,0,-1,-1,-1,-1,-1,0,-1
1763471023.9120543,-2,-1,-1,-1,-1,-1,-1,-2
1763471023.926301,-1,-1,0,0,-3,0,0,0
1763471023.9351888,0,0,-2,0,-1,0,-1,0
1763471023.9586155,-1,-1,-2,-2,0,-1,-1,-2
1763471023.9723935,-1,-2,-2,-2,-2,-2,-3,-2
1763471023.9863439,0,0,0,1,-1,-1,-1,-1
1763471023.9952536,-2,-1,-1,-2,-1,-1,0,-2
1763471024.0167627,0,-1,-1,-1,-1,0,1,-1
1763471024.025203,0,-2,-2,0,0,-1,-1,0
1763471024.0316653,0,0,0,0,-1,-2,-1,0
1763471024.0407188,-1,-3,0,-1,-1,-2,-1,-1
1763471024.0552378,-2,-2,-4,-2,-1,0,0,0
1763471024.0787883,-2,-1,0,1,7,0,-1,-2
1763471024.0916502,-1,0,-1,0,-4,-1,-2,-1
1763471024.102223,-2,0,-3,-1,-1,1,-1,-1
1763471024.1158242,-1,-3,-2,-1,-2,-2,-2,-2
1763471024.1375473,-1,0,-2,-2,-4,-2,-1,-1
1763471024.1513333,-1,-1,-2,-2,-2,-1,-1,0
1763471024.1602664,0,-1,-1,-1,-1,0,-1,-1
1763471024.1751285,-2,-2,1,-2,-1,-2,0,-1
1763471024.1976438,1,-1,2,1,0,-2,-1,0
1763471024.2114172,0,2,0,0,7,-1,-1,-1
1763471024.2203107,2,-7,-2,-2,-3,-4,0,-1
1763471024.242618,1,0,7,1,-7,1,-3,0
1763471024.257645,0,0,-11,-6,10,10,-1,-1
1763471024.271152,-1,-12,31,55,41,-10,-9,0
1763471024.280185,14,43,24,42,-2,-35,-18,1
1763471024.3027585,6,-43,12,3,21,35,30,-7
1763471024.3181176,-8,-52,-13,-1,-30,-21,-11,-5
1763471024.3313508,6,3,-5,4,35,11,4,-1
1763471024.3406062,-14,-25,6,18,14,6,6,-3
1763471024.3547647,-9,50,2,-9,9,-12,2,-2
1763471024.3617032,-6,38,37,16,17,19,8,5
1763471024.377837,-23,-6,-27,-16,18,-5,-36,-14
1763471024.391419,16,39,2,-8,-24,4,74,39
1763471024.4167552,-8,14,-13,12,2,-4,-11,1
1763471024.428836,0,12,20,5,17,6,16,14
1763471024.4377713,-16,-10,-4,6,12,-8,-12,-1
1763471024.4513938,1,6,7,-4,0,2,-10,-8
1763471024.4677103,-12,-16,-53,-15,9,6,4,-59
1763471024.4826798,23,2,-23,9,-26,-4,-4,-43
1763471024.4975817,-5,3,3,-12,-12,-8,-28,57
1763471024.511371,-26,-4,-7,-24,-21,-11,-33,-41
1763471024.5203228,-20,-10,-4,-41,-30,-16,-3,-72
1763471024.5500867,0,-10,4,-6,12,14,15,11
1763471024.5575964,1,1,-6,9,26,-17,-25,5
1763471024.5801198,-12,-18,-30,-28,-7,-28,27,-23
1763471024.5945876,13,-5,10,-7,-16,23,11,64
1763471024.6012373,-7,-1,6,35,16,-51,-27,-30
1763471024.6176703,1,-7,-37,-49,12,4,-23,-16
1763471024.6403594,-17,-5,9,90,28,-6,-10,-31
1763471024.6546905,8,-3,-2,56,-7,-19,-7,25
1763471024.6614587,-5,2,21,-1,33,-7,-57,52
1763471024.6777198,34,18,18,-5,-8,21,36,77
1763471024.7003229,7,-4,1,-16,-27,-15,-10,-43
1763471024.7147036,-2,17,62,-33,-8,10,-17,-73
1763471024.7214153,13,7,38,18,1,20,9,8
1763471024.7376008,1,1,-6,-33,-6,-61,-59,-50
1763471024.76014,-2,2,-4,7,2,-24,-11,-26
1763471024.7737627,4,-7,-12,-92,19,15,47,79
1763471024.7828171,-6,-7,-21,31,18,29,30,-28
1763471024.7990837,5,7,17,37,-29,31,44,-12
1763471024.820137,-3,3,-15,-51,-11,22,44,-4
1763471024.8338504,-1,8,11,24,-15,-1,-3,2
1763471024.8427873,-21,-9,2,15,16,61,47,65
1763471024.8576145,-31,-9,-15,23,0,-20,-35,-5
1763471024.8802135,24,3,-1,-6,-29,42,22,55
1763471024.8938768,-11,12,4,17,19,56,9,-19
1763471024.9028122,2,18,26,-22,18,44,79,4
1763471024.9177797,-25,-20,-9,23,29,-31,3,78
1763471024.9404373,17,20,29,56,-6,-37,25,-10
1763471024.9701493,-5,-7,-7,-14,-18,-32,-52,-37
1763471024.9853897,11,-3,-11,-17,-2,-17,-45,-11
1763471025.0003529,9,-2,13,-48,-26,-7,17,-5
1763471025.0465424,4,2,3,16,15,29,-8,15
1763471025.052768,-20,-12,-22,-52,-10,47,32,2
1763471025.0601356,6,5,29,43,-4,29,-16,-77
1763471025.0738027,16,-2,-6,-15,13,-9,-24,83
1763471025.0830073,12,7,-3,-44,13,-12,-62,70
1763471025.0980322,-32,-14,-8,12,-2,-53,-46,-43
1763471025.1202803,19,10,-8,-52,24,-5,-12,53
1763471025.133762,-8,6,5,31,-29,-43,31,-46
1763471025.142846,8,2,13,3,-18,-16,-19,11
1763471025.157703,-4,-7,-38,-11,21,69,102,16
1763471025.18781,-8,-5,-4,0,-21,3,-24,-4
1763471025.193913,-11,-10,-19,-23,34,-4,1,-1
1763471025.202927,-14,-17,-28,-39,-8,-18,-1,-26
1763471025.217736,-15,-10,-5,-18,7,3,3,-36
1763471025.240385,-7,1,12,9,-28,-13,-26,1
1763471025.262742,18,7,-17,-37,0,5,-9,-3
1763471025.2777786,3,-21,-27,18,15,5,-8,7
1763471025.3002224,-9,-23,-5,4,7,-1,-49,17
1763471025.314006,4,9,27,12,11,113,40,-24
1763471025.3229504,5,7,0,-17,-13,-42,-17,14
1763471025.3378086,-16,0,-7,-58,-36,-29,-19,-7
1763471025.375786,24,9,6,45,-3,-38,18,-5
1763471025.3828623,4,5,5,1,10,-16,24,35
1763471025.39775,-6,-11,-17,-3,-10,-35,-1,-47
1763471025.4202883,-3,1,-3,23,-15,-8,-9,-8
1763471025.4339259,5,11,13,-5,42,-2,8,-4
1763471025.4427845,-4,-1,-10,2,14,-7,-42,8
1763471025.457692,7,1,-21,-34,-18,9,57,3
1763471025.4804196,25,11,25,19,5,-23,-47,51
1763471025.502721,-2,10,25,32,18,27,22,3
1763471025.5177824,9,-6,-8,14,14,-8,-28,-10
1763471025.5401464,-19,-15,-21,-14,-32,39,22,-60
1763471025.5626304,5,-1,-5,-15,-1,-8,-9,26
1763471025.57769,1,0,9,-17,-4,38,26,-7
1763471025.600062,-13,-6,-16,1,-11,-21,-31,-9
1763471025.6226134,-7,4,20,34,21,11,5,0
1763471025.636954,-7,-12,-18,-4,-13,-28,-38,60
1763471025.6437376,0,-2,10,-32,3,19,-18,-17
1763471025.6677322,-8,3,9,1,14,-12,3,-38
1763471025.6826205,8,10,22,-34,-31,3,-2,4
1763471025.6971166,-2,-3,16,42,9,22,26,50
1763471025.7040062,-16,-16,-23,-2,-5,0,-24,-23
1763471025.7201672,8,11,-2,-51,-7,15,42,-10
1763471025.7426083,-6,-11,-16,24,12,16,-13,-17
1763471025.7651625,15,-5,1,11,-4,-7,-3,4
1763471025.7801573,-1,-4,-7,41,25,17,-7,-2
1763471025.8028193,-19,-5,-19,-3,-28,-17,-26,-43
1763471025.8169749,-13,0,7,11,-5,-25,-18,-14
1763471025.8238354,-15,-5,-4,-16,1,-3,10,-13
1763471025.8402462,7,10,20,-7,-13,22,-22,-80
1763471025.87019,-17,9,-7,-19,-6,-7,-6,13
1763471025.877003,-31,-14,-14,-13,42,-10,-9,-17
1763471025.8839486,-1,8,11,-45,19,-23,-26,15
1763471025.9002604,30,3,-11,2,24,49,27,94
1763471025.9226522,3,-10,-14,-44,-30,-39,7,-2
1763471025.9374177,0,5,15,16,-18,-12,3,-2
1763471025.9440315,5,2,11,23,-2,-15,-11,1
1763471025.9603257,6,-16,-12,46,-7,13,10,50
1763471025.982763,14,13,8,-14,-11,-30,1,32
1763471025.9964027,-4,9,7,-6,13,-5,47,0
1763471026.0052965,1,1,1,0,4,1,-16,-37
1763471026.0201602,2,-10,-6,0,-4,11,-17,-9
1763471026.0427792,-8,-10,-25,-65,-18,-27,-18,-29
1763471026.0563643,-5,6,4,15,15,-14,19,-23
1763471026.0653515,-2,-4,-14,19,-13,-9,-9,-17
1763471026.0801687,0,2,7,7,7,24,24,-22
1763471026.1028247,4,1,6,34,-4,22,-4,0
1763471026.11639,13,9,11,3,6,35,-32,1
1763471026.1252337,-3,-8,1,-7,7,0,-13,-41
1763471026.1402266,-3,-5,-3,-18,5,-14,-16,27
1763471026.1629355,-5,-3,13,10,-13,-13,-40,-15
1763471026.1765654,-4,-3,-2,-3,-14,-13,8,0
1763471026.185433,-10,-7,-8,-34,-28,9,12,8
1763471026.2001913,-22,-12,-22,-35,-19,-38,-4,-6
1763471026.206289,12,-1,-12,3,11,13,70,36
1763471026.2229447,12,9,23,15,-1,11,33,-34
1763471026.2363973,-5,0,-1,9,28,-5,25,-6
1763471026.245343,-12,1,7,18,5,9,-4,-5
1763471026.2602067,1,-10,-11,-29,-17,19,-10,-16
1763471026.2827628,1,-7,-4,51,13,-23,-16,6
1763471026.296476,4,1,6,-36,13,-14,-22,-19
1763471026.3053916,-4,0,5,-30,-13,13,9,-36
1763471026.3204665,-1,-1,2,-6,-11,36,17,-8
1763471026.3427312,1,6,7,-34,36,58,7,2
1763471026.3563383,-5,8,6,2,-13,-42,-44,-16
1763471026.3729742,-3,-6,1,-3,32,11,18,7
1763471026.3802316,-2,8,11,19,-23,9,12,60
1763471026.4031248,-6,-1,2,-17,-9,8,-16,-24
1763471026.416364,8,-2,-7,-4,5,-6,5,1
1763471026.425256,5,10,20,22,7,-18,-8,-5
1763471026.4402049,-10,-13,-5,21,-35,-27,-13,48
1763471026.4629297,-26,-5,-27,-39,31,-22,6,4
1763471026.4851253,7,-3,-9,4,6,24,4,-17
1763471026.5001428,15,-3,1,43,9,-7,21,57
1763471026.5226803,4,-2,-5,-16,-7,-19,11,-31
1763471026.5452347,-4,5,10,13,2,-6,4,0
1763471026.5590887,3,-5,-5,-14,17,-22,-14,-6
1763471026.5744154,-2,1,2,-2,4,-16,-29,0
1763471026.5903141,-15,-1,7,31,-1,2,-21,-10
1763471026.6054568,21,11,10,37,-5,17,-5,-8
1763471026.62027,-5,-3,-12,-23,5,-23,26,1
1763471026.6272504,0,-2,7,39,-2,-15,9,15
1763471026.6439152,-2,3,15,8,-16,0,26,-2
1763471026.6653988,3,-6,7,69,-2,1,-10,-16
1763471026.6796532,5,0,0,-19,-1,12,-7,-1
1763471026.686349,13,-2,-9,-20,20,-6,-4,41
1763471026.7101169,-14,-12,-36,-17,8,-16,-9,15
1763471026.7252803,-6,7,0,15,8,27,-13,0
1763471026.7395933,-5,-3,-4,-53,-30,-12,7,-25
1763471026.746545,6,-3,-26,-65,-9,11,39,-8
1763471026.7626529,7,8,14,-11,-21,-31,-26,-6
1763471026.785112,-8,-9,-12,-18,-6,-14,-15,1
1763471026.7995644,-5,-4,7,-2,-6,28,8,-10
1763471026.806359,8,2,-2,-22,-1,22,16,4
1763471026.8228705,-21,-5,-7,4,-13,11,-1,-29
1763471026.845231,6,4,0,-17,31,7,37,1
1763471026.858878,-1,0,17,4,0,-24,11,-6
1763471026.867693,-1,-2,-6,-10,14,2,-3,7
1763471026.8826318,4,-1,6,14,-8,9,7,2
1763471026.9051573,-1,0,1,5,8,-2,-44,9
1763471026.919616,6,-8,-8,45,3,1,-28,-10
1763471026.926291,-1,5,11,34,10,-3,12,-27
1763471026.9427772,-6,-8,-19,31,44,0,13,-16
1763471026.965409,-4,3,5,-57,-19,-11,-17,-2
1763471026.9790537,3,0,3,-10,-20,-7,-7,-2
1763471026.9880872,0,-1,1,-8,10,-3,44,30
1763471027.002934,6,2,-4,3,-7,-32,0,21
1763471027.025121,-6,-8,-5,18,5,38,10,9
1763471027.0387397,5,8,2,-36,3,50,8,3
1763471027.047804,-11,-1,12,22,-4,10,-9,-6
1763471027.0627666,8,-1,-20,16,35,-11,38,105
1763471027.092741,0,-1,-1,-26,-10,-5,-11,-32
1763471027.0988703,-6,2,9,-16,0,-11,-12,-9
1763471027.107974,-8,0,-2,-18,9,-10,2,-17
1763471027.122784,-3,-6,-16,15,2,-9,27,-2
1763471027.1452107,-12,0,11,-19,-18,-33,-7,39
1763471027.158918,2,1,-8,17,-24,-33,14,-39
1763471027.1679134,9,3,11,11,-17,2,20,10
1763471027.181724,-2,8,8,-2,-11,23,2,-16
1763471027.1905386,-16,-4,-14,-7,-7,-10,-23,44
1763471027.205278,11,0,7,-26,2,-22,1,2
1763471027.2189555,13,-3,-19,-18,7,2,-51,1
1763471027.2279906,18,-1,-7,-8,-41,7,43,4
1763471027.2428539,4,-4,-4,46,22,19,9,-25
1763471027.2652476,-16,-3,3,-27,-12,1,25,-8
1763471027.2788892,-4,-7,-1,-17,13,-16,-25,-2
1763471027.2953582,3,6,7,-28,3,-1,4,-17
1763471027.3178158,0,-11,-7,12,-14,7,37,13
1763471027.325206,5,10,-1,-37,12,-6,-42,-1
1763471027.3387926,-10,15,12,36,8,7,-14,-10
1763471027.3477726,-9,8,29,36,-14,-10,19,83
1763471027.3630075,2,-12,-34,11,-30,-57,-76,-14
1763471027.3852313,-1,5,14,-42,-5,15,22,-35
1763471027.4082778,8,-1,-11,-33,-2,20,12,-3
1763471027.4228437,-11,-6,12,30,-8,24,16,-12
1763471027.4455168,7,0,-1,-13,-27,-1,13,38
1763471027.4678392,-4,-4,0,-6,6,-18,1,-6
1763471027.4833527,-1,2,7,19,5,-3,-1,-92
1763471027.5053701,17,7,5,-4,4,15,6,-5
1763471027.5442572,-19,-10,7,-2,-23,4,41,14
1763471027.5507772,-7,-2,-14,-30,-1,-14,-6,-19
1763471027.5728226,-4,-4,17,47,15,18,-15,16
1763471027.5868807,-10,-3,-12,44,26,-21,-19,-8
1763471027.595417,4,3,27,-4,-8,3,-19,-15
1763471027.602166,5,4,6,-27,-34,-3,-30,-3
1763471027.6088123,7,2,-1,0,18,-5,-15,-3
1763471027.6256652,5,-2,-2,54,13,18,-11,-30
1763471027.6477463,2,5,2,-45,-32,-35,18,24
1763471027.662169,-7,-4,-13,-33,5,1,-62,6
1763471027.6691046,-3,6,7,-23,-34,-6,-4,-4
1763471027.6853983,4,7,36,24,-25,-37,-31,14
1763471027.707718,3,-7,-14,74,37,56,30,15
1763471027.7220466,-5,-1,17,-33,-12,-6,-1,11
1763471027.7363908,1,-1,1,-7,20,0,-50,48
1763471027.7451315,10,4,-8,-46,11,40,9,-5
1763471027.7677376,-6,-3,4,-38,-8,8,25,-12
1763471027.7979867,-26,-1,9,36,6,-13,14,-11
1763471027.8127465,-14,-13,-17,36,24,30,30,18
1763471027.8278203,18,7,15,-15,-25,-9,-27,3
1763471027.850416,-11,-2,-10,-31,-9,-29,-4,-4
1763471027.865201,-10,0,-9,2,20,11,0,2
1763471027.8878698,29,-1,-4,-16,-19,-35,-2,44
1763471027.9014144,-2,-4,-11,-40,-1,-45,-9,-15
1763471027.910297,15,1,-3,17,3,20,14,1
1763471027.925167,2,-8,-25,8,-5,26,-7,-16
1763471027.9476213,11,9,11,-15,10,-15,-40,8
1763471027.9612613,9,5,-8,-32,-24,8,25,-5
1763471027.970219,-8,-3,7,7,-2,-19,2,-28
1763471027.9852417,0,-8,5,11,0,20,-4,7
1763471028.0152109,6,4,-1,-43,9,1,-34,5
1763471028.021322,-6,0,9,-2,5,-24,-14,-19
1763471028.0302918,-3,-3,-14,-1,5,-33,-48,-23
1763471028.0452983,-5,7,-4,-25,-4,-4,22,-11
1763471028.0679662,4,-1,1,6,-3,11,35,3
1763471028.0813212,1,-2,19,9,1,-9,-16,1
1763471028.0904024,-4,-3,5,-25,4,-6,-15,9
1763471028.1052566,-7,-22,-28,32,1,7,-5,-16
1763471028.1269932,0,1,5,38,-2,-6,-5,-22
1763471028.1354268,-4,-8,6,-11,-32,-1,56,5
1763471028.1501558,0,3,-6,-7,21,38,4,5
1763471028.1652546,-7,-3,1,1,13,1,15,12
1763471028.1883168,1,2,1,14,2,18,1,2
1763471028.2019112,5,3,7,10,-23,-50,0,-19
1763471028.2106688,4,-7,-19,-63,15,-5,19,17
1763471028.2251544,-6,-1,6,14,-13,-35,-9,9
1763471028.2478735,-3,7,3,15,-3,-9,12,3
1763471028.2613769,-10,3,6,1,4,24,0,6
1763471028.270556,-2,0,16,7,-9,-19,-45,53
1763471028.3004198,19,2,-15,-59,1,4,8,19
1763471028.3152616,-2,-12,-1,24,22,23,-2,-8
1763471028.321302,16,3,-9,21,-11,-18,-35,-3
1763471028.330519,-12,5,12,82,14,65,17,-40
1763471028.352706,-20,-2,13,-21,6,-5,13,-19
1763471028.3678381,-15,-2,-6,47,-21,-7,84,-2
1763471028.3902614,-4,-6,-1,-39,-18,-17,-54,-12
1763471028.4050908,0,2,10,9,-6,24,-33,13
1763471028.41276,3,-3,0,-28,-3,-13,-11,10
1763471028.4278407,1,2,2,15,-18,-29,8,-2
1763471028.4577332,-18,-28,-40,-39,-6,-13,-9,-30
1763471028.4647176,-16,-11,-9,21,25,43,6,-19
1763471028.4714222,4,-2,4,-14,23,10,12,10
1763471028.4878683,-3,5,0,-31,4,15,1,0
1763471028.5177581,9,7,12,-54,5,-6,3,25
1763471028.5402062,11,13,9,7,-6,16,5,7
1763471028.5476105,8,8,29,41,2,9,-37,2
1763471028.5702233,13,5,2,-30,-32,-46,1,1
1763471028.5846858,2,2,19,54,-9,-21,-7,-32
1763471028.5913713,13,9,4,7,27,42,-2,32
1763471028.6076672,-8,-6,-8,41,10,-7,-15,-1
1763471028.6301143,-4,9,-11,-13,8,-14,2,23
1763471028.6526659,3,3,0,-9,16,36,-10,-5
1763471028.6677775,-4,-11,0,9,-4,-15,-18,2
1763471028.6904142,1,-1,-3,-13,-6,-16,5,52
1763471028.7048006,3,-11,-22,-27,20,66,51,1
1763471028.7113206,-10,0,0,-6,-7,-51,-21,-4
1763471028.7278225,0,-1,2,-13,-17,-14,-2,2
1763471028.7577567,17,6,1,8,-3,-10,2,-18
1763471028.7644792,-4,-2,-14,-4,-19,-24,-8,-1
1763471028.7713687,1,-2,5,-17,-14,-8,-7,54
1763471028.795272,-15,-12,-30,-41,22,1,6,0
1763471028.810178,8,4,15,47,2,14,-22,-5
1763471028.8240075,-16,-5,-15,-68,18,48,34,-18
1763471028.832905,-4,1,-15,-41,-14,-13,-7,-17
1763471028.8554468,7,2,14,49,-2,-9,-17,-23
1763471028.8702526,12,6,8,0,6,-25,1,10
1763471028.8838537,-12,-10,1,-1,-2,-8,-21,9
1763471028.8927317,-12,5,9,-3,-23,-16,13,-18
1763471028.907674,0,-3,-5,-14,3,-24,4,-1
1763471028.9302766,-21,-5,-3,24,-49,-40,1,-4
1763471028.9438996,1,-4,-1,-1,1,-20,-2,-36
1763471028.9528015,6,0,8,33,-26,-36,-29,-15
1763471028.9677093,-11,-3,3,-12,9,41,99,0
1763471028.99015,-8,-4,-8,-26,-8,42,5,-13
1763471029.0038018,8,1,-10,-32,-4,33,-19,5
1763471029.0127904,-2,-9,-38,-26,8,33,-19,-8
1763471029.0351787,21,5,-4,9,28,0,0,13
1763471029.0501778,-1,3,18,43,-7,-37,12,17
1763471029.063828,-2,-3,7,0,-26,-28,-42,-3
1763471029.0727634,8,0,5,28,-17,-11,-5,39
1763471029.087665,-10,0,-18,-85,15,-16,-15,3
1763471029.1102517,-2,-8,-8,81,1,2,-3,3
1763471029.1238344,7,3,6,-15,-1,-2,-30,-4
1763471029.1328013,0,-5,-3,23,1,-20,-13,-5
1763471029.1477957,4,-18,-61,-78,-1,39,47,4
1763471029.1702204,3,5,20,37,-2,-34,-23,-2
1763471029.183965,0,3,15,10,-12,1,-13,4
1763471029.192866,3,1,6,-6,-3,-10,-15,-7
1763471029.2076595,-4,3,13,2,2,-19,10,18
1763471029.2298987,-8,-5,-10,0,-2,2,1,-8
1763471029.237849,-8,1,5,3,-13,-16,-10,7
1763471029.2602408,2,11,10,14,3,8,5,8
1763471029.2677326,6,-1,1,5,2,19,-4,23
1763471029.290202,17,5,6,12,0,-12,18,9
1763471029.3127446,-2,2,1,0,-3,3,-14,-3
1763471029.3270736,18,-3,-6,-2,8,-1,-2,-24
1763471029.3338804,57,16,1,26,7,3,-3,-6
1763471029.3503635,-62,28,17,22,5,4,-21,19
1763471029.3727016,43,-1,-12,-12,-15,5,75,-13
1763471029.387182,-1,-11,-2,0,12,5,-25,2
1763471029.3939624,27,-7,4,52,-19,-52,10,29
1763471029.4101841,-33,-14,0,3,-7,-12,-27,-12
1763471029.4325268,3,-10,0,4,11,6,-2,-5
1763471029.4403863,-32,-9,-3,-32,-15,-8,17,2
1763471029.4478812,13,-5,-2,-12,-8,-2,-2,-2
1763471029.4539714,-25,1,3,-3,-7,-4,-6,1
1763471029.470279,-2,-1,1,8,-3,-6,-15,-8
1763471029.4927862,-11,-3,-2,-14,-4,-1,3,-3
1763471029.515285,-7,-1,-3,-1,-13,-4,-3,-3
1763471029.5377405,3,1,-3,-9,10,0,-5,-2
1763471029.552757,3,-1,1,2,-5,-2,3,0
1763471029.5677516,-3,5,-6,4,3,-3,-5,-5
1763471029.5753584,-1,-6,-1,-9,-10,-5,-4,-2
1763471029.5901856,-1,-4,4,2,-1,0,2,0
1763471029.6126754,5,-6,-5,-2,-6,0,-1,0
1763471029.626453,1,-4,-2,-16,-15,-7,-2,0
1763471029.6353326,-2,0,3,20,6,3,2,1
1763471029.650383,-2,0,2,3,-2,-17,-1,-1
1763471029.6727667,-6,-6,2,-9,-5,-6,-2,-4
1763471029.686799,-1,4,4,5,2,5,2,0
1763471029.6964247,-3,-1,-4,-6,-4,-3,1,-1
1763471029.7108831,-6,-6,-7,1,-7,-6,-2,-4
1763471029.732811,0,-1,-1,15,13,7,2,1
1763471029.755288,-1,0,-1,3,7,15,2,0
1763471029.7703218,-1,1,-3,-2,0,-35,-6,0
1763471029.8002207,0,2,3,-1,12,77,2,1
1763471029.8151987,2,4,1,8,-3,-18,6,0
1763471029.8308136,-2,-3,-6,-19,-6,-5,-5,-4
1763471029.8526947,3,5,5,-2,-4,1,2,-1
1763471029.8663406,-2,-5,-2,0,-4,-10,-6,-4
1763471029.8752465,1,1,-1,8,5,-6,2,1
1763471029.8902538,3,0,0,4,0,-12,0,-2
1763471029.912754,-5,-2,-2,-10,0,4,-5,-3
1763471029.9264028,0,-2,-2,-13,0,6,-1,1
1763471029.9352486,3,-2,-2,3,3,12,4,-2
1763471029.9577358,1,-4,-4,-1,-1,-11,-2,-1
1763471029.9729037,-2,-1,-1,3,-2,12,-1,0
1763471029.9862902,-4,-2,-1,7,3,-6,0,1
1763471029.9954438,-1,-3,-1,0,3,2,1,-1
1763471030.0178165,-2,-1,-1,-6,-4,-6,-1,0
1763471030.0327904,0,-2,-1,4,3,-6,0,-1
1763471030.0463543,-2,-1,-3,0,-1,-11,-1,-2
1763471030.0552943,0,-1,-1,2,2,-2,-3,-1
1763471030.0695934,-1,0,1,-2,-9,8,1,-1
1763471030.076399,1,-2,-1,1,2,18,1,-1
1763471030.0929902,-2,-3,-3,5,4,-11,-3,-1
1763471030.1064703,-3,-2,-1,-1,2,-4,-3,-3
1763471030.115249,2,-1,-2,-2,0,2,0,-1
1763471030.1296704,0,-2,-2,-1,0,2,-1,-1
1763471030.136436,1,-1,0,-1,-2,0,0,0
1763471030.1530223,-2,-2,-1,0,-1,1,-1,-1
1763471030.1664422,-2,-1,-2,0,3,3,1,0
1763471030.1830277,-3,0,1,1,0,-2,-3,-22
1763471030.1903713,3,-3,-2,3,4,3,-4,-16
1763471030.2128243,0,2,3,0,0,-7,21,101
1763471030.2353165,1,-1,0,-3,-1,17,-3,-17
1763471030.2502656,-3,-1,-1,-1,-5,-13,-2,-11
1763471030.2728033,1,-1,-2,-4,-4,3,-3,-11
1763471030.295461,-4,-1,-1,1,0,-2,-4,-18
1763471030.3103354,-1,-1,-1,-5,-6,-4,-5,-21
1763471030.3328497,-1,-3,-2,-6,-4,-7,-6,-8
1763471030.355132,-1,0,0,0,-1,2,-2,-3
1763471030.3695395,-2,-1,1,1,-1,-14,-4,-27
1763471030.376423,1,-1,1,0,0,-4,-2,-2
1763471030.39282,-4,0,-1,0,2,6,-1,-13
1763471030.4150405,-1,-2,-2,0,3,-1,0,1
1763471030.4214127,2,-1,-1,-8,-3,2,0,0
1763471030.4294844,0,-2,-1,-1,-3,2,-2,6
1763471030.436379,-1,-2,-2,2,3,0,-1,-1
1763471030.4528909,-1,-1,1,1,1,2,-1,1
1763471030.475335,0,-2,-1,-1,-2,-3,1,7
1763471030.4897053,1,1,-1,1,2,-2,-1,-2
1763471030.4963334,-1,-1,-1,-1,-1,-1,-3,-1
1763471030.5127025,-2,-2,-2,-1,-1,-14,0,-1
1763471030.5353727,0,-2,-3,-3,-4,2,1,14
1763471030.5496438,-1,-1,-2,0,-5,0,-3,-12
1763471030.556767,-2,0,-3,0,1,14,0,4
1763471030.572718,-2,-1,-1,-1,2,2,-1,1
1763471030.5953887,0,-2,0,-1,1,4,0,1
1763471030.6096764,-1,-1,0,-4,-2,5,-3,1
1763471030.6167743,-2,-2,-3,-3,-5,-2,1,0
1763471030.6326687,-2,-1,-2,-2,-2,-3,1,6
1763471030.6555183,1,0,-1,2,0,2,0,-7
1763471030.669556,-1,0,0,0,-2,2,-2,-1
1763471030.676331,-2,-2,0,0,2,-1,-4,-7
1763471030.692676,-1,-1,-1,-4,-3,-2,-1,-3
1763471030.7152777,0,-2,-2,0,0,12,5,15
1763471030.7288163,-1,-2,0,0,0,-5,-4,-11
1763471030.7379096,0,1,-2,1,1,-1,-1,-1
1763471030.752727,-3,-3,-7,-1,0,-1,-2,-1
1763471030.7752216,0,0,1,-3,-2,-2,-1,-2
1763471030.7889228,-4,-1,-2,0,0,-4,-3,-13
1763471030.7979796,0,-1,0,0,-1,-1,-1,6
1763471030.8132493,-2,-1,-1,-2,-5,-1,-3,-10
1763471030.834342,1,0,-1,0,-1,-2,0,11
1763471030.8510454,0,-2,-1,0,-3,4,0,1
1763471030.8579154,-1,-1,-3,0,0,2,-2,-9
1763471030.8726904,-1,-1,-1,3,3,-1,-2,4
1763471030.8952851,-2,-2,-2,-1,0,-10,1,-2
1763471030.9087973,0,-1,-1,-2,-2,0,-1,-7
1763471030.9253123,-1,-3,-1,-2,-1,0,-1,4
1763471030.9327557,1,-2,-2,-3,-3,-2,0,18
1763471030.9552515,0,-2,0,-1,-1,0,0,10
1763471030.9688828,-2,-1,-2,0,-3,1,-2,-9
1763471030.9779491,-1,1,-1,-1,1,-4,0,2
1763471030.9927511,-2,0,1,-1,0,2,-1,-4
1763471031.0152118,1,1,2,1,-1,1,0,-3
1763471031.0288746,-2,-1,-2,-3,0,-4,-1,-5
1763471031.0379937,1,0,1,1,-3,0,-3,-6
1763471031.052833,-3,-1,-2,0,0,4,0,-11
1763471031.0755763,-1,-2,-2,-4,-10,-10,-2,0
1763471031.0891893,0,1,5,-1,-2,2,1,2
1763471031.0981896,0,0,0,0,-2,-5,1,0
1763471031.1127725,-2,1,-3,-5,-2,-2,-2,-5
1763471031.1352546,1,-2,-5,-1,1,3,0,0
1763471031.148823,1,-1,-1,-1,-1,-1,-2,-2
1763471031.1577933,-1,-2,-2,-3,-2,-1,1,-1
1763471031.1727927,0,-1,-3,-1,1,-1,0,-1
1763471031.2028515,-1,0,0,2,3,-1,-1,-1
1763471031.2178648,-2,-1,2,1,0,-1,-1,-3
1763471031.2330008,0,-1,2,3,4,1,0,0
1763471031.255307,-2,-2,-3,0,-1,0,0,-1
1763471031.2777138,-1,0,0,0,1,-1,-1,1
1763471031.2913477,-4,-2,-2,-4,-3,-3,-2,-6
1763471031.300456,2,-1,1,2,1,-2,1,29
1763471031.315205,0,0,-3,-1,-3,-2,-1,2
1763471031.3379083,-2,0,-2,-3,-1,-1,-1,-4
1763471031.3522918,-1,-2,0,-2,-7,-1,-1,-2
1763471031.3588803,-1,-1,1,-3,0,-2,0,-1
1763471031.375312,-1,-2,-2,-1,-1,-1,-1,1
1763471031.3977733,0,1,1,-3,-3,-1,-1,0
1763471031.4120958,0,-1,-1,0,0,1,-2,1
1763471031.4189558,-1,-1,0,0,-1,0,-2,-2
1763471031.4352617,-1,-2,-2,-1,0,-2,-1,-2
1763471031.4587717,1,-2,-2,-2,0,-1,-2,-1
1763471031.4721372,0,0,-2,-5,-1,-3,-1,2
1763471031.4788833,1,-2,-2,-1,-1,1,0,41
1763471031.4952629,-3,-2,-8,0,0,-1,-2,-1
1763471031.5177524,-1,-1,1,-1,-3,-1,0,3
1763471031.5320272,-1,-2,2,-2,-2,-3,0,-8
1763471031.538829,-1,-2,0,-3,-2,-2,-2,-5
1763471031.55536,0,2,-1,0,2,1,1,1
1763471031.5777445,-1,-1,0,0,1,0,1,0
1763471031.5922465,0,0,-1,1,-1,1,-3,1
1763471031.5989628,0,-2,0,0,0,-1,0,-5
1763471031.6152658,0,0,-2,-1,-1,0,1,-1
1763471031.64552,-1,-2,-1,-2,-1,1,0,-2
1763471031.651367,-4,-1,-4,-1,-1,-2,-1,-23
1763471031.6603,0,-2,0,-2,-2,0,0,-4
1763471031.6752193,-2,0,0,2,-1,-2,-1,0
1763471031.6976469,0,-1,0,1,-1,0,-2,0
1763471031.711489,1,-2,-1,-1,-2,0,0,6
1763471031.7203069,-1,-1,-2,-1,0,-2,-2,-2
1763471031.7352324,-2,-1,-1,-2,1,-3,1,4
1763471031.757743,0,-1,0,-2,-1,0,-1,5
1763471031.7716892,0,0,-2,-2,0,-1,-1,1
1763471031.7804294,0,-1,-3,1,0,-1,-1,1
1763471031.7952833,0,-2,1,0,-1,0,-1,-2
1763471031.817659,-1,-1,1,-4,-1,-2,-2,-1
1763471031.8313475,-1,-3,0,-1,-3,0,-2,4
1763471031.840309,0,-1,-2,-1,-1,-1,0,-7
1763471031.8554308,-2,-3,-1,0,1,-1,-1,-5
1763471031.877739,-2,-3,-1,-1,-1,-2,0,-1
1763471031.8913915,-1,0,-1,1,1,-2,-1,1
1763471031.900321,-2,-3,-1,-1,-2,-2,0,-7
1763471031.9143329,1,0,-1,-1,-2,0,1,23
1763471031.92319,-1,-1,0,1,-1,-1,-2,-7
1763471031.9376605,0,1,-2,-3,-2,-2,-2,-13
1763471031.9513376,-2,-2,-1,-2,-2,-2,-1,-3
1763471031.9602892,-2,-2,-3,-1,0,-1,-2,-6
1763471031.9751987,-1,-1,0,1,-2,-1,0,-2
1763471031.997767,-1,0,-4,-3,-2,0,-2,-1
1763471032.011329,0,-2,-2,-3,-1,-2,-3,-3
1763471032.0203748,0,-1,-1,-3,-3,-1,-1,-1
1763471032.0352306,-2,-1,0,-1,-1,-1,0,-2
1763471032.0578194,-1,-1,-2,-1,0,-1,-2,-2
1763471032.0714455,-1,0,-2,-1,0,0,1,-2
1763471032.0864496,-3,-2,0,0,0,-1,-2,-14
1763471032.0951915,-1,-1,-2,1,-1,-2,-2,1
1763471032.117628,-1,-1,-2,-2,-4,-1,-1,-7
1763471032.1240392,-2,0,-1,0,-1,0,-1,-3
1763471032.1403954,0,0,-2,1,3,-1,0,0
1763471032.1552114,-1,-1,-2,0,-2,1,-1,2
1763471032.1854336,-1,-1,-1,-1,0,-2,-2,-2
1763471032.200914,0,-2,0,-2,-1,1,-1,0
1763471032.2154882,-1,-3,2,-4,-1,-1,0,-6
1763471032.2376847,0,2,0,3,-1,-2,-1,2
1763471032.267763,0,-2,-1,-1,-1,-2,-1,4
1763471032.274696,-1,0,0,-2,-1,-2,0,-5
1763471032.2814157,-1,-2,-3,0,-1,-1,-2,5
1763471032.2980404,-1,-1,-4,0,-1,-1,0,-2
1763471032.3206294,-1,-2,0,0,-1,0,-2,-1
1763471032.33472,1,-1,-2,0,-3,-3,-1,-5
1763471032.3415267,-3,-2,0,0,0,0,-1,-9
1763471032.3579025,-1,-1,0,0,-2,0,-1,4
1763471032.3640525,0,0,-2,1,0,-2,1,5
1763471032.3802788,-1,0,-1,-4,-1,0,0,3
1763471032.3947144,-1,-1,1,-1,0,-1,-1,-5
1763471032.4012868,0,1,0,-2,0,0,0,5
1763471032.417808,-2,-1,1,0,1,0,-1,-1
1763471032.4403071,0,-1,-1,0,0,-2,-1,-1
1763471032.4546256,-1,-1,-2,0,-1,0,1,0
1763471032.4616199,-2,-2,-3,-2,-1,-1,-1,-1
1763471032.4779458,3,-1,-4,1,1,-1,2,40
1763471032.5005493,-3,-2,-1,-2,0,-1,-2,-13
1763471032.514724,-2,0,1,-1,-1,-1,-1,-8
1763471032.528831,0,-1,-1,0,-2,0,-1,-4
1763471032.5379179,-2,0,-2,-2,0,-1,-2,-2
1763471032.5603213,1,0,0,1,-2,0,-2,-6
1763471032.574743,-2,-3,-3,-1,-1,-2,-1,-9
1763471032.5890315,0,-1,-1,0,-1,-1,-1,5
1763471032.5977914,-3,-4,-7,-1,-2,-1,0,-2
1763471032.6203058,0,-2,2,-3,-1,0,-2,2
1763471032.642809,-2,-1,-1,-2,-1,-2,0,-1
1763471032.6578155,1,-1,0,1,1,-1,-2,-7
1763471032.6804855,1,6,2,-1,-12,-1,-1,0
1763471032.693813,1,-1,9,4,14,4,2,-1
1763471032.7030811,1,7,0,-7,-26,-21,-5,0
1763471032.717826,-7,-22,-9,-12,-20,-13,-4,-2
1763471032.7402985,7,16,8,-18,-27,0,1,3
1763471032.7538178,-5,-27,-24,13,27,5,-2,-3
1763471032.7630591,-7,-7,-19,-15,-4,2,-4,-3
1763471032.7779298,-11,17,23,16,-2,-2,11,-2
1763471032.8078568,-5,-28,-8,-3,-5,-8,-6,-4
1763471032.8140173,5,1,-9,-1,-8,-5,-1,-1
1763471032.8229911,-1,-2,-23,30,25,-8,-3,-2
1763471032.8371444,-1,10,3,5,3,0,-1,-1
1763471032.8440192,2,15,10,8,13,1,1,0
1763471032.8680117,0,13,-21,-18,-19,-5,-5,-3
1763471032.8741193,0,6,6,10,3,19,0,0
1763471032.8829055,0,13,4,10,22,12,1,-2
1763471032.8977735,1,1,-4,0,11,-2,15,2
1763471032.9202151,2,11,-4,-4,30,26,-2,0
1763471032.9340308,1,-4,-1,-4,-11,-17,-5,-3
1763471032.943049,-1,-4,10,-5,-2,-2,-6,-1
1763471032.957263,-2,-1,1,3,6,1,-4,-3
1763471032.980945,-4,1,-2,12,-14,4,-2,-2
1763471032.994,4,-2,1,15,29,30,9,2
1763471033.0029714,-6,6,16,4,2,-58,-46,-89
1763471033.0328119,24,0,-3,0,27,78,10,94
1763471033.0411932,8,16,21,29,21,60,44,84
1763471033.062935,15,17,30,-17,-58,-68,1,-17
1763471033.0932038,-18,-11,5,19,-15,28,2,4
1763471033.1009867,-7,-8,-5,-15,-26,24,-17,15
1763471033.1227567,5,-1,15,12,-4,-9,-22,5
1763471033.1529474,-6,3,-6,-31,-7,-35,63,119
1763471033.1603851,-11,-8,-9,-23,11,27,-17,-72
1763471033.1994576,36,5,2,48,49,94,10,25
1763471033.205696,2,17,23,-42,6,-14,-7,-46
1763471033.220607,-17,-51,-66,47,63,0,-26,96
1763471033.2600179,-15,13,22,-18,-39,-58,-3,-36
1763471033.2654593,-13,1,-2,-36,-3,-10,-10,-32
1763471033.280309,-13,15,23,94,-11,-37,-32,15
1763471033.3104103,-9,-1,6,-4,19,93,56,21
1763471033.3165283,17,-5,11,-34,-44,-46,-10,37
1763471033.325479,-2,-15,-39,23,-8,6,21,5
1763471033.3481607,5,3,4,9,-2,-44,-18,-17
1763471033.3630304,-2,-15,-58,-104,-10,3,86,-17
1763471033.3691967,-11,4,11,-12,15,-49,-14,-59
1763471033.3771224,-16,-15,-16,-25,-16,-23,-93,-58
1763471033.386268,-11,-8,-32,-76,52,-5,-18,-25
1763471033.4005015,11,13,8,-6,65,48,14,-42
1763471033.4234426,-6,8,19,-8,-23,-43,31,-13
1763471033.4366155,-6,-7,-5,-30,-7,1,-32,-25
1763471033.4453762,13,-2,-13,-26,-24,33,-39,25
1763471033.4755363,15,12,27,36,-13,9,16,18
1763471033.4828436,-12,-10,-21,-16,14,11,-14,-58
1763471033.4983845,-8,2,-18,-35,1,21,-3,20
1763471033.5115132,-2,4,10,3,19,25,28,27
1763471033.5210028,6,15,29,20,21,49,29,26
1763471033.543074,9,0,2,7,-27,-30,11,-63
1763471033.5892162,-10,-1,19,58,7,0,-9,-16
1763471033.5951428,-26,-5,-4,12,-2,59,-20,-45
1763471033.6023707,4,8,-10,5,-5,-2,-42,-54
1763471033.6253235,-12,-19,-63,-67,-17,-58,-45,19
1763471033.6395373,8,1,-3,16,1,20,-9,18
1763471033.662097,4,1,2,10,6,41,19,18
1763471033.6927722,22,0,-20,2,-9,-37,5,17
1763471033.6995964,-17,11,44,58,-9,22,-12,19
1763471033.7220638,-12,3,42,46,-13,-47,-6,-25
1763471033.7531388,-2,5,18,-4,-5,31,10,-8
1763471033.7595508,17,4,18,33,-6,-61,-8,4
1763471033.790257,-7,-10,-27,-31,-3,-49,40,21
1763471033.8046591,7,4,14,10,28,1,-5,89
1763471033.820241,-8,-7,-11,-48,-11,14,-7,-59
1763471033.8429956,-3,7,7,-44,19,51,-8,-7
1763471033.866027,-4,-4,-5,-3,-13,-47,-22,-90
1763471033.879609,-19,-17,-8,29,13,-48,59,-22
1763471033.9022968,7,3,20,-18,-29,-40,9,17
1763471033.9245744,5,-8,-17,14,-7,34,-6,35
1763471033.939994,4,-1,0,-6,30,-19,-42,-20
1763471033.9623394,-7,0,3,-21,-1,37,-22,8
1763471033.9847918,8,2,7,35,0,21,-15,31
1763471033.9996479,-2,-4,2,18,22,38,8,-14
1763471034.0220418,-9,-7,-11,6,-6,-56,-14,-23
1763471034.044656,2,-3,4,-9,25,69,65,-8
1763471034.0596213,4,2,17,-68,-32,4,-38,1
1763471034.0821328,-12,-8,-4,39,-17,-24,-8,-8
1763471034.104557,-13,17,0,31,-9,-7,-4,44
1763471034.1200612,4,-5,-13,-20,12,36,-20,-37
1763471034.1425629,6,2,2,-26,16,-11,-36,-20
1763471034.1645603,-8,-5,-18,-49,6,-56,21,-26
1763471034.1795833,-10,-1,0,-35,-5,103,37,-37
1763471034.2025375,3,2,-6,0,-18,-19,13,-13
1763471034.225016,-7,3,33,64,6,13,23,95
1763471034.2395513,4,-21,-47,-38,-31,-25,-25,-26
1763471034.2621148,12,-1,-6,-17,13,26,10,31
1763471034.2845666,2,0,-2,92,-29,4,-3,-62
1763471034.2993364,3,-11,-5,-49,-3,-79,-54,-8
1763471034.307054,10,5,17,-1,34,31,-15,37
1763471034.3221161,-8,4,23,15,19,28,45,13
1763471034.3447092,-10,-5,-5,2,-22,-21,-25,-77
1763471034.3679574,-7,1,-7,-14,1,-17,-10,-29
1763471034.3823307,6,-5,-13,-25,-9,3,-7,100
1763471034.4051583,-6,16,32,36,-15,36,11,-37
1763471034.4199586,11,15,11,-38,10,74,-23,-8
1763471034.4578564,-1,-1,1,-18,-18,-68,-12,41
1763471034.4646409,7,5,2,-68,12,3,24,-15
1763471034.480234,-5,-16,-34,27,8,-19,-1,-11
1763471034.5178492,-3,-18,-52,-39,19,-4,36,4
1763471034.5245879,2,6,-15,-15,-8,14,6,-4
1763471034.5396342,-5,-6,10,46,-21,-48,-4,-21
1763471034.5626612,-18,5,22,20,-9,-16,-39,-30
1763471034.5863583,10,6,15,91,31,1,68,27
1763471034.5994978,9,3,2,-37,-13,-29,-20,-37
1763471034.607187,-3,-10,-10,30,-17,-11,-15,-5
1763471034.6226122,7,-3,13,8,19,47,-34,77
1763471034.6449268,-15,-6,8,-25,0,-13,-14,-31
1763471034.658864,8,5,-12,-15,-5,26,27,60
1763471034.6670718,3,6,4,-12,-1,23,-20,-52
1763471034.6820693,-23,-5,-5,-1,2,18,4,-45
1763471034.7046149,31,0,-22,5,0,-20,-17,48
1763471034.7193189,-20,-11,3,38,42,-2,3,65
1763471034.7273886,16,4,13,3,1,-36,-3,23
1763471034.7421894,-3,-7,-22,-35,-1,-6,-3,-35
1763471034.7645605,2,3,8,53,-1,-48,-25,23
1763471034.77898,4,-1,-3,8,-30,-39,2,-39
1763471034.7871952,-6,4,19,29,-39,-10,34,12
1763471034.8025024,8,-7,-16,-29,-23,-37,-17,-29
1763471034.8245463,-17,-3,-6,24,9,-28,-22,-38
1763471034.8389022,2,1,10,23,3,69,14,1
1763471034.8471272,-10,-8,-27,-29,21,12,-1,-60
1763471034.8625672,16,10,20,-12,-20,-1,0,54
1763471034.884661,-6,-2,11,3,-8,-1,6,-30
1763471034.8994746,5,9,19,8,-15,17,-6,60
1763471034.9072428,0,-2,-8,13,-1,-45,-18,19
1763471034.9224615,-23,-6,-9,-10,14,8,-22,-19
1763471034.9446523,-12,1,-5,-38,-2,-37,-12,-72
1763471034.9676247,-4,-3,-7,14,30,0,1,-91
1763471034.9821062,-5,-3,2,-37,-7,54,20,-11
1763471035.0046566,7,1,9,27,-30,-16,43,101
1763471035.0353453,6,2,2,13,13,58,-2,-14
1763471035.0421731,6,4,-7,-10,1,6,15,-4
1763471035.064676,0,2,-10,-33,6,7,-27,42
1763471035.0877578,-1,4,13,-8,9,-27,-15,-54
1763471035.1021154,18,0,7,13,7,12,2,79
1763471035.1245468,-3,-6,-14,-19,-7,-1,-19,-8
1763471035.1477501,1,-8,-7,-11,-13,-33,-2,-22
1763471035.1624877,-9,-3,17,51,-7,-22,7,35
1763471035.1849315,-14,0,2,-23,-32,-10,16,-5
1763471035.207881,-5,-1,-8,25,4,7,-41,-46
1763471035.2303636,-4,-7,3,-5,6,-7,8,-9
1763471035.2450123,1,3,0,27,13,55,25,-43
1763471035.2684886,5,5,-5,-43,7,-33,22,-7
1763471035.2827938,10,5,-8,-54,-25,-16,-15,-11
1763471035.3056157,-4,-4,-3,-3,29,31,20,-34
1763471035.3277926,0,-1,1,-57,-12,-27,-28,54
1763471035.342159,3,-5,-8,42,-1,-42,7,12
1763471035.3645933,-13,-7,6,28,22,16,-17,-21
1763471035.3876846,18,15,-8,-49,-5,-2,6,-23
1763471035.4177673,-4,2,0,12,-2,20,3,-17
1763471035.4244833,15,3,-6,19,-12,48,25,-31
1763471035.4479356,-9,1,21,26,-3,-11,-29,-40
1763471035.4623344,-12,-6,-1,17,2,-8,-1,-20
1763471035.4846745,-17,-5,9,8,-19,-14,-6,9
1763471035.524475,18,-5,-20,-36,-2,-13,5,37
1763471035.5302784,-3,-11,-11,17,11,16,8,-68
1763471035.5451012,-9,-10,-20,-26,-17,-40,-21,-32
1763471035.5674312,-7,0,6,29,24,42,8,15
1763471035.5815759,-11,-6,2,37,8,15,38,-7
1763471035.5896668,-16,-4,6,51,6,-10,10,14
1763471035.6048772,2,-3,-1,4,27,-27,-27,-37
1763471035.6274207,3,-1,11,26,6,8,4,-7
1763471035.6415784,0,-8,-26,-7,-13,23,7,49
1763471035.6500893,-6,7,32,13,-19,12,19,-32
1763471035.6720722,-20,3,13,-2,-27,-45,-37,-38
1763471035.6805212,8,-5,-32,-27,5,11,-6,14
1763471035.695827,-2,-1,-7,-38,-13,36,-8,8
1763471035.7015588,9,5,8,3,-11,-29,-10,-10
1763471035.7099185,16,2,6,-25,-39,-19,-3,-19
1763471035.7246966,5,17,26,-25,0,-8,26,2
1763471035.747038,8,0,0,-26,35,22,69,-8
1763471035.761866,6,0,-10,56,20,-30,-11,22
1763471035.7703762,-19,-17,-6,43,-24,-53,-7,1
1763471035.8001702,-22,-5,-3,-9,-4,-11,-20,-70
1763471035.8088462,23,3,-2,-62,-26,-18,64,11
1763471035.8220172,1,-8,-29,-4,27,-27,-37,16
1763471035.82983,8,8,15,17,8,32,39,-30
1763471035.8448553,10,-14,-9,6,-16,-24,-69,42
1763471035.867136,-17,-2,21,28,-1,21,-17,18
1763471035.8816946,0,-2,-13,-34,20,5,-39,-13
1763471035.8897693,-8,-4,-34,-94,20,23,4,38
1763471035.9050214,1,4,7,17,-13,17,-50,-7
1763471035.9276984,18,11,-3,22,0,33,17,100
1763471035.9507165,-13,2,20,10,-1,-2,37,-64
1763471035.96471,-22,-7,1,-23,-13,-13,-9,-16
1763471035.987673,1,1,24,34,-10,18,20,-14
1763471036.0102592,3,-12,-26,58,0,-8,-5,-23
1763471036.0246341,-2,2,13,-9,5,-7,25,13
1763471036.0471723,5,0,4,5,-6,15,-22,-23
1763471036.0703847,-18,-5,-25,-53,-5,-33,5,14
1763471036.0846424,4,8,10,-54,-16,-18,12,-68
1763471036.1072237,-1,-5,-36,-34,19,3,7,11
1763471036.1305077,-1,4,3,-16,-2,5,-59,22
1763471036.1449425,-2,-2,4,55,-25,30,7,-12
1763471036.1675377,-7,-5,2,33,-1,15,-1,0
1763471036.1980205,10,1,7,25,-5,-5,-12,17
1763471036.204774,3,-5,-14,2,7,-21,-21,-44
1763471036.2272005,0,-4,-22,-31,11,4,11,86
1763471036.2502456,-2,2,19,51,-1,-27,21,-5
1763471036.2652469,-4,4,18,18,7,4,-12,-11
1763471036.2876098,32,13,24,5,13,12,26,-6
1763471036.3103669,-16,-12,-1,-5,0,15,-36,-14
1763471036.324663,5,-4,-18,-74,-3,20,15,1
1763471036.3477643,5,-12,-25,63,10,29,41,-5
1763471036.3709087,-8,8,6,-33,7,-50,-17,-7
1763471036.384819,9,4,0,30,-4,-26,41,89
1763471036.4074552,-30,-9,-11,-25,0,16,38,-13
1763471036.430835,1,1,19,63,2,18,-22,-21
1763471036.4450629,1,-3,-14,-17,-18,26,0,-15
1763471036.4753816,9,6,-9,-59,-10,-34,-24,9
1763471036.4905708,0,-4,2,-20,-3,-12,-33,-29
1763471036.5133696,-1,-1,20,-2,-4,29,9,49
1763471036.5274518,17,-10,-40,-16,1,-54,-31,-57
1763471036.5505445,-17,-14,9,-61,-5,-67,-57,1
1763471036.5802479,-7,16,10,24,5,23,19,-7
1763471036.5875454,-6,-8,-18,-37,-31,8,19,-16
1763471036.6107473,-3,-5,-6,63,-6,-14,10,-22
1763471036.625959,-9,1,-4,29,11,19,16,-5
1763471036.6326532,-12,-1,-34,-71,-37,-30,-37,-86
1763471036.6470873,14,14,35,50,29,4,-1,-3
1763471036.6783903,-1,-7,-12,-32,36,-19,-23,42
1763471036.692802,-1,1,12,2,-34,-12,29,-20
1763471036.707196,9,2,9,2,31,51,44,-4
1763471036.7309172,4,1,5,-32,-14,-9,-15,-26
1763471036.7442741,-11,2,-16,-21,-4,3,13,5
1763471036.7526605,8,-1,-4,-106,-11,-55,-31,7
1763471036.7672822,2,-6,4,22,-3,0,2,32
1763471036.791076,-23,-33,-60,28,-21,13,-6,-72
1763471036.8041818,9,9,16,-16,10,41,10,76
1763471036.8126783,-10,-10,-18,-78,-24,38,16,-44
1763471036.827115,13,-1,-9,-19,-33,-39,-25,-36
1763471036.8503938,-4,6,20,-19,-15,7,-3,-16
1763471036.8728597,17,14,10,27,-15,-8,12,84
1763471036.9033113,-10,3,11,9,6,13,1,-47
1763471036.918013,-1,-5,-5,-72,16,-15,-17,-16
1763471036.9333723,-17,0,2,21,12,10,-31,4
1763471036.947691,16,0,-1,27,-6,10,43,1
1763471036.9708755,-11,8,13,-5,-21,-19,-16,-58
1763471036.9934783,-5,-4,-18,-33,52,-25,0,-6
1763471037.0074718,-1,-1,5,-6,-15,-2,24,-62
1763471037.03047,16,5,7,19,-18,23,-13,-2
1763471037.0530636,-6,-14,-52,5,4,0,-19,30
1763471037.0671885,-2,5,11,2,-22,-1,-18,22
1763471037.0902877,2,1,18,-5,-14,-20,15,26
1763471037.1127334,-10,3,-2,-1,35,13,-6,-13
1763471037.1352654,-11,-1,13,-2,21,52,35,38
1763471037.1496558,8,-3,11,-13,-13,-21,-14,-13
1763471037.1728,-3,-4,8,8,-17,-24,14,5
1763471037.187299,-18,-13,-8,0,-40,-45,-65,6
1763471037.1950562,4,7,9,-3,-2,-36,41,66
1763471037.2096918,-4,-23,-71,-73,-2,-12,0,65
1763471037.2329018,11,2,18,72,7,-11,-2,67
1763471037.2470827,16,2,25,21,-3,4,-27,-36
1763471037.2696028,8,1,-7,-12,-42,-17,-8,-46
1763471037.292882,-21,4,-9,-6,11,1,0,-28
1763471037.307172,-3,1,9,15,36,-16,7,66
1763471037.3298242,-6,-14,-34,-76,15,84,55,-37
1763471037.3519354,-12,-3,-2,4,-23,-46,-12,-53
1763471037.3600268,-4,-5,-25,-11,49,14,21,18
1763471037.3675432,14,11,21,20,20,42,29,-23
1763471037.389781,-6,3,25,-9,-3,-2,-28,12
1763471037.4129589,6,6,25,-4,-20,-34,28,6
1763471037.4271832,-7,-8,-10,10,18,10,-4,-36
1763471037.4498003,5,11,12,22,-16,5,48,29
1763471037.4733334,-8,-5,-8,-11,1,16,-39,41
1763471037.4867425,-22,-14,-17,48,6,0,-45,-22
1763471037.4952593,20,1,-1,10,7,28,18,37
1763471037.5097692,-7,-9,5,-11,-12,-13,-31,-2
1763471037.5328686,8,8,3,-5,-28,-6,-17,-61
1763471037.5464518,-1,1,-21,-24,14,-2,15,-21
1763471037.5547543,-16,-8,-3,-12,-27,-8,18,15
1763471037.569678,13,5,10,-32,-9,16,10,18
1763471037.593018,0,8,3,-33,22,-1,-3,-5
1763471037.6066356,4,1,17,74,-11,-14,19,87
1763471037.6146855,10,1,-10,-37,-1,1,-44,-32
1763471037.629918,4,-5,-11,-6,45,-14,-17,-16
1763471037.6532788,15,1,-11,0,9,-4,5,35
1763471037.6664896,-13,0,-1,-8,-29,-14,-35,21
1763471037.674779,8,8,18,-8,-31,-30,-18,7
1763471037.689634,-23,-10,-7,45,-14,-1,-21,-45
1763471037.7131138,-5,2,-1,-51,-44,10,6,-23
1763471037.726631,8,-6,0,-3,0,-2,8,4
1763471037.7351346,1,-2,3,-3,15,-6,0,-22
1763471037.7497485,24,1,-7,1,-1,6,15,4
1763471037.7728994,10,0,-7,25,20,2,10,-6
1763471037.7866542,-4,-2,-11,-24,-8,7,13,-4
1763471037.7950118,2,2,4,4,-18,-11,0,-5
1763471037.8096821,-13,-4,-1,-1,23,-1,0,-16
1763471037.841301,31,10,9,-6,-9,11,-18,-5
1763471037.8558645,5,-17,-8,-14,-15,6,-7,29
1763471037.8701894,3,-7,-10,6,14,-11,39,-8
1763471037.9002554,-24,-23,0,-19,-30,-14,24,13
1763471037.915356,-7,13,6,27,45,7,43,-47
1763471037.9297333,-22,1,-4,-12,-17,-2,-23,3
1763471037.9535117,-4,12,11,24,4,-3,-4,-13
1763471037.9760032,0,5,5,18,10,-4,-17,0
1763471037.9901743,1,4,0,1,3,-1,-3,-5
1763471038.0132923,-1,0,-5,-9,-10,-1,-18,2
1763471038.0368855,-4,-4,-2,-6,-1,-2,4,-2
1763471038.0495484,-5,-8,-4,-1,-7,-1,-3,-8
1763471038.073507,-3,-1,1,3,3,-3,-3,0
1763471038.0957313,-2,2,-2,-1,3,0,-1,-3
1763471038.1106691,2,-3,-1,3,16,5,-5,-1
1763471038.133731,-1,3,-2,-13,-6,-2,0,1
1763471038.1559749,-1,0,-5,10,28,2,2,-1
1763471038.1704016,-2,-3,-4,-2,-5,0,-3,-2
1763471038.1928425,-2,-1,0,-2,-10,-1,-8,-2
1763471038.2153127,0,-6,-5,-5,-12,2,-1,0
1763471038.229634,1,9,4,16,18,0,-2,0
1763471038.2529507,0,-4,-1,-7,-12,-4,1,-1
1763471038.2752705,-3,-4,-4,7,8,-1,-1,-3
1763471038.2897449,-2,-2,-6,-11,-11,0,1,0
1763471038.3127406,-1,-2,0,-11,-8,-2,-2,-2
1763471038.3352659,0,-1,1,-2,-2,0,-1,0
1763471038.3497143,3,1,3,-4,-13,-3,5,1
1763471038.3722053,1,-1,-1,-2,-4,-6,-3,-1
1763471038.3952863,-3,0,-1,-3,-6,-15,0,-1
1763471038.4089935,-1,4,3,0,3,-3,-1,1
1763471038.4171355,-6,-2,-6,-3,-2,-3,0,-3
1763471038.4322507,-1,-1,-5,0,0,1,0,-3
1763471038.4553833,0,1,2,-2,-5,5,-2,-2
1763471038.4690657,1,-1,4,4,5,5,-1,0
1763471038.4773357,0,2,1,2,2,-1,1,0
1763471038.4923437,-1,0,0,-1,0,1,0,-2
1763471038.5155504,-1,1,4,-3,-5,0,-1,-1
1763471038.5291085,2,1,-5,0,4,-1,-2,-2
1763471038.5373986,8,-3,1,0,-1,0,-3,-1
1763471038.5526025,1,-4,-4,1,2,-1,-3,-3
1763471038.5828214,-5,-5,-4,0,2,0,-1,-1
1763471038.5889964,-1,-2,-2,-4,-5,1,-3,-1
1763471038.5971622,-5,-2,1,1,4,0,-1,0
1763471038.6130402,-3,-5,-6,-1,3,-3,-1,-3
1763471038.6355956,-4,-4,-5,-2,-5,-2,0,-1
1763471038.6491423,-3,-4,1,1,-1,0,0,2
1763471038.657221,-5,-1,-8,-7,-7,0,-1,-3
1763471038.6730607,-17,-2,0,2,2,1,1,0
1763471038.695464,6,1,-2,-1,-2,-1,-2,1
1763471038.7090626,2,0,-4,-2,5,-1,0,-1
1763471038.7172203,2,-5,-3,-8,-9,-2,0,0
1763471038.732593,3,1,3,-2,-4,-2,-2,-2
1763471038.7561,1,3,2,4,3,-3,-1,0
1763471038.786038,13,4,-1,-1,1,-2,0,0
1763471038.792125,-3,-5,-5,0,-1,-1,-1,-1
1763471038.8153076,-4,0,1,-1,-2,-1,-1,-2
1763471038.845274,-4,-5,-1,-2,-3,-1,0,-1
1763471038.8520792,-1,-4,3,-5,-3,1,-1,0
1763471038.8752913,-1,-1,-3,-1,0,-1,-2,-3
1763471038.8978603,0,-6,0,-2,-2,0,-1,-1
1763471038.9120643,-1,6,-1,-1,-1,0,-1,-1
1763471038.9352968,5,-4,-6,-3,-1,0,-1,-1
1763471038.9578488,-3,1,3,3,1,0,0,0
1763471038.9721081,-3,2,-2,2,3,-2,-1,-1
1763471038.9952888,-3,2,1,-1,-2,-2,-1,-1
1763471039.0180755,1,2,-1,-9,-9,-1,0,0
1763471039.0322664,-1,-6,-2,2,-2,0,-1,-1
1763471039.0630267,-2,-4,-6,-2,-1,-1,0,-2
1763471039.0780008,-4,-7,-2,-1,-1,0,-1,-1
1763471039.0915892,1,0,2,-1,1,-1,-1,1
1763471039.1005337,0,1,1,0,1,1,0,1
1763471039.115541,0,-4,-3,-2,-3,-1,-1,-1
1763471039.1385531,1,1,2,-3,0,0,-1,-1
1763471039.1516647,-2,10,1,4,1,2,-1,0
1763471039.160482,-7,-10,-8,9,10,-4,-3,-3
1763471039.1752884,6,1,2,2,-2,-2,-1,-2
1763471039.1979423,-3,-1,-2,3,11,1,-1,-2
1763471039.211492,-3,-5,-2,-3,-4,-1,-2,-2
1763471039.2205691,2,4,0,0,2,1,-2,0
1763471039.2352955,-10,-4,-3,-1,-9,-3,0,-1
1763471039.258004,2,-2,-5,-2,1,-2,-1,0
1763471039.2718198,-2,-1,-1,0,1,0,0,-1
1763471039.2807682,2,2,1,-2,0,-2,0,0
1763471039.2954483,6,-1,-2,-5,-8,-1,1,1
1763471039.301379,-5,-2,-1,0,1,-2,-1,-2
1763471039.3183303,-5,-1,1,0,2,0,-1,-1
1763471039.3317413,-3,-6,-8,-5,-2,-4,-2,-4
1763471039.3406022,-3,-2,-3,2,3,-2,-1,0
1763471039.355288,2,1,4,0,0,-1,-1,0
1763471039.3783476,-1,-2,0,0,0,-2,-1,-1
1763471039.391406,0,2,0,-4,-3,0,-1,-2
1763471039.4004574,2,-4,-4,-1,3,0,0,-1
1763471039.4155025,0,5,3,4,2,-2,-2,0
1763471039.4379742,8,1,0,-4,-3,-2,0,0
1763471039.451517,-1,-3,-2,3,0,-2,-2,-2
1763471039.4611835,0,11,7,8,3,0,-2,-1
1763471039.4752798,-3,-9,-1,2,3,0,0,-1
1763471039.4978392,-6,0,1,3,2,0,-2,-2
1763471039.5204,-2,1,0,-3,-3,-1,1,0
1763471039.5354712,-4,-4,-5,-4,-4,-1,-2,-1
1763471039.55789,0,-9,-4,-3,0,0,-1,-1
1763471039.5721529,-10,-3,-5,-3,-3,-2,-1,-3
1763471039.580481,1,1,-6,-2,-3,-1,-1,-2
1763471039.5954432,-1,1,-2,-2,-2,-1,-1,-1
1763471039.6180084,1,2,0,1,-1,-1,-1,0
1763471039.631779,-1,-12,-6,-2,-1,0,1,-2
1763471039.6405149,-3,1,-2,0,-1,-2,0,-3
1763471039.6554337,3,3,0,-5,-6,-1,-1,-2
1763471039.6778078,0,3,2,1,2,-1,-1,-1
1763471039.700288,0,1,-2,-1,-1,-1,-2,0
1763471039.7153625,1,3,2,1,-1,0,0,0
1763471039.7378206,-1,-6,-2,1,0,0,0,-2
1763471039.760711,0,6,3,-13,-23,0,1,0
1763471039.775817,0,0,-1,4,5,-1,-2,-1
1763471039.7982605,0,0,-1,1,4,-1,-1,0
1763471039.804202,-3,-2,-2,1,6,2,-1,-3
1763471039.8210664,-1,3,2,2,2,0,0,0
1763471039.8353305,-2,2,-2,-2,0,-3,-1,-1
1763471039.8418782,2,2,4,0,-2,-2,-2,1
1763471039.858742,-3,-5,-5,-1,1,-3,-3,-1
1763471039.881138,-1,-1,-3,-2,-4,0,-1,-3
1763471039.8946843,-1,0,1,-1,0,0,0,-1
1763471039.9016032,-2,-3,-2,1,2,-1,-1,0
1763471039.9178379,-1,-1,1,1,4,0,0,1
1763471039.9403725,-2,-1,-2,-4,0,0,0,-2
1763471039.9546764,-1,1,0,3,2,-2,-3,-1
1763471039.961484,-1,-1,-3,-1,-3,-1,-1,1
1763471039.9784355,1,-4,-4,-3,-1,-3,-2,-2
1763471040.0004377,-2,-5,-6,-2,-4,-2,-2,-1
1763471040.0147846,5,-2,-1,0,0,-1,0,-1
1763471040.0214567,-3,-3,-1,-3,1,-1,1,-1
1763471040.0377958,-2,1,-1,-3,-8,0,0,-1
1763471040.060997,-2,-1,0,-1,0,0,-1,-2
1763471040.082861,-1,0,0,2,3,0,-1,-1
1763471040.097826,-2,1,0,-2,2,-2,1,0
1763471040.1203763,-1,1,1,3,1,0,-1,0
1763471040.135178,-1,-2,-2,-12,-2,-2,-1,-1
1763471040.1419122,1,0,2,3,2,-1,-2,-1
1763471040.1580217,-2,-3,-1,1,-2,-2,0,-1
1763471040.1805727,-2,1,-1,1,-2,0,-2,-2
1763471040.1944134,-1,-1,0,2,-2,0,-2,0
1763471040.203798,-2,-3,-3,-2,-2,-2,-2,-2
1763471040.2180936,-1,-1,0,3,2,-1,-2,-2
1763471040.2401402,-1,0,-1,-2,0,-2,-1,-1
1763471040.2466803,-3,-4,-4,2,-3,-1,-2,-2
1763471040.2548308,1,-1,0,0,1,0,0,0
1763471040.263291,-1,0,-1,-3,-3,-2,1,-1
1763471040.2781608,-1,1,0,-6,-8,0,-1,-1
1763471040.3010292,-2,-3,-3,0,-1,0,-1,0
1763471040.3143036,-4,-3,-6,-4,-2,-2,0,-4
1763471040.3235228,-1,0,0,-6,-2,0,0,-1
1763471040.3380437,0,0,0,3,1,-2,-3,0
1763471040.3612723,-1,-1,-1,1,1,-1,-1,-2
1763471040.3739922,-1,-1,0,0,-1,-2,0,-2
1763471040.383392,0,-1,0,-1,-2,-1,0,-1
1763471040.398019,0,-1,0,-1,-2,0,1,-1
1763471040.4203205,-3,-2,-1,2,3,0,-2,0
1763471040.4343317,0,0,1,-2,-1,-1,-1,0
1763471040.4433627,0,6,-2,-2,-3,0,-2,0
1763471040.4579241,-1,-1,-1,-2,-4,0,-2,0
1763471040.4805906,1,4,1,-2,-3,-2,0,1
1763471040.503777,-3,-4,-9,-2,0,-1,0,-2
1763471040.5180511,-1,0,3,1,0,-1,-1,0
1763471040.5406847,-1,-3,-3,-1,0,0,-1,-2
1763471040.5542889,-1,-1,-2,-7,-4,-1,-1,0
1763471040.563041,0,-7,-4,-7,-5,-2,0,-2
1763471040.5781906,-3,-5,-2,0,-2,-1,-1,-2
1763471040.6003754,-3,-1,-1,-3,-1,-1,0,-3
1763471040.6140022,-1,-1,-2,-2,1,0,-4,1
1763471040.6229103,1,4,2,0,0,0,0,-1
1763471040.6380386,-1,-3,-3,0,-2,0,-1,-2
1763471040.660336,0,1,-2,-1,-1,-2,1,2
1763471040.682009,0,-1,1,0,1,-2,0,-1
1763471040.6906404,-2,-4,-6,-1,1,0,-2,-1
1763471040.6979394,1,3,2,-1,0,-1,-2,-1
1763471040.7203984,-2,4,-1,0,0,-1,0,-1
1763471040.7429156,0,-1,-1,-6,-9,0,1,0
1763471040.7571297,-3,-4,-3,5,4,-1,-2,-2
1763471040.7639952,-1,0,1,-1,0,-1,0,-2
1763471040.7804136,-1,-2,0,2,0,-1,0,-1
1763471040.80356,0,-4,-1,0,0,0,0,1
1763471040.8174384,0,1,3,0,-2,-1,0,0
1763471040.8241158,-1,-1,0,-1,0,-2,-1,-1
1763471040.8403814,1,1,-2,-2,-2,-1,-2,-1
1763471040.862921,-3,-7,-6,-3,-1,-1,-1,-2
1763471040.8773148,0,1,3,1,2,-1,0,0
1763471040.8840084,0,-2,1,5,3,-1,-2,0
1763471040.900711,-1,-2,-1,0,-2,-2,0,0
